233;2.0;61.0;6.0;228;;;0
322;0.0;4.0;0.0;317;292.0;363.0;0
359;2.0;60.0;6.0;354;;;0
447;0.0;4.0;0.0;442;405.0;488.0;0
572;0.0;3.0;0.0;567;530.0;613.0;0
609;2.0;60.0;6.0;604;;;0
695;0.0;3.0;0.0;690;654.0;737.0;0
732;2.0;60.0;6.0;727;;;0
821;0.0;4.0;0.0;816;779.0;863.0;0
947;0.0;3.0;0.0;942;905.0;989.0;0
984;2.0;60.0;6.0;979;;;0
1075;0.0;3.0;0.0;1071;1032.0;1118.0;0
1111;2.0;60.0;6.0;1106;;;0
1147;2.0;62.0;6.0;1144;;;0
1204;0.0;3.0;0.0;1199;1161.0;1246.0;0
1284;2.0;62.0;6.0;1279;;;0
1332;0.0;3.0;0.0;1327;1289.0;1374.0;0
1369;2.0;60.0;6.0;1364;;;0
1459;0.0;4.0;0.0;1454;1416.0;1501.0;0
1586;0.0;4.0;0.0;1581;1543.0;1628.0;0
1623;2.0;60.0;6.0;1618;;;0
1713;0.0;4.0;0.0;1708;1670.0;1755.0;0
1749;2.0;61.0;6.0;1744;;;0
1841;0.0;1.0;0.0;1836;1798.0;1883.0;0
1877;2.0;61.0;6.0;1872;;;0
1969;0.0;4.0;0.0;1964;1926.0;2012.0;0
2005;2.0;60.0;6.0;2000;;;0
2099;0.0;0.0;0.0;2094;2055.0;2142.0;0
2135;2.0;60.0;6.0;2130;;;0
2229;0.0;4.0;0.0;2225;2185.0;2272.0;0
2266;2.0;60.0;6.0;2261;;;0
2360;0.0;4.0;0.0;2355;2316.0;2403.0;0
2490;0.0;1.0;0.0;2485;2446.0;2533.0;0
2526;2.0;61.0;6.0;2521;;;0
2620;0.0;1.0;0.0;2615;2576.0;2664.0;0
2657;2.0;61.0;6.0;2652;;;0
2752;0.0;1.0;0.0;2747;2708.0;2795.0;0
2788;2.0;61.0;6.0;2783;;;0
2832;2.0;62.0;6.0;2829;;;0
2882;0.0;4.0;0.0;2877;2838.0;2924.0;0
2919;2.0;61.0;6.0;2914;;;0
3010;0.0;0.0;0.0;3005;2967.0;3053.0;0
3047;2.0;61.0;6.0;3042;;;0
3139;0.0;4.0;0.0;3134;3096.0;3182.0;0
3175;2.0;61.0;6.0;3170;;;0
3269;0.0;0.0;0.0;3264;3225.0;3311.0;0
3304;2.0;60.0;6.0;3299;;;0
3397;0.0;4.0;0.0;3392;3354.0;3440.0;0
3433;2.0;61.0;6.0;3428;;;0
3527;0.0;0.0;0.0;3522;3483.0;3568.0;0
3652;0.0;3.0;0.0;3647;3610.0;3694.0;0
3689;2.0;60.0;6.0;3684;;;0
3722;2.0;62.0;6.0;3718;;;0
3779;0.0;4.0;0.0;3774;3736.0;3821.0;0
3907;0.0;4.0;0.0;3903;3864.0;3949.0;0
3944;2.0;61.0;6.0;3939;;;0
3977;2.0;63.0;6.0;3977;;;0
4035;0.0;4.0;0.0;4030;3992.0;4077.0;0
4073;2.0;61.0;6.0;4068;;;0
4163;0.0;0.0;0.0;4158;4120.0;4204.0;0
4288;0.0;3.0;0.0;4283;4246.0;4330.0;0
4325;2.0;60.0;6.0;4320;;;0
4415;0.0;3.0;0.0;4410;4372.0;4457.0;0
4543;0.0;0.0;0.0;4538;4500.0;4585.0;0
4580;2.0;60.0;6.0;4575;;;0
4671;0.0;3.0;0.0;4666;4628.0;4712.0;0
4708;2.0;60.0;6.0;4703;;;0
4794;0.0;3.0;0.0;4789;4753.0;4836.0;0
4831;2.0;60.0;6.0;4826;;;0
4921;0.0;0.0;0.0;4916;4878.0;4963.0;0
4956;2.0;61.0;6.0;4951;;;0
5047;0.0;4.0;0.0;5042;5005.0;5089.0;0
5083;2.0;61.0;6.0;5078;;;0
5173;0.0;4.0;0.0;5168;5131.0;5214.0;0
5210;2.0;61.0;6.0;5205;;;0
5297;0.0;3.0;0.0;5292;5255.0;5337.0;0
5417;0.0;3.0;0.0;5413;5377.0;5457.0;0
5539;0.0;4.0;0.0;5534;5498.0;5580.0;0
5663;0.0;4.0;0.0;5658;5621.0;5704.0;0
5699;2.0;61.0;6.0;5694;;;0
5787;0.0;3.0;0.0;5782;5745.0;5827.0;0
5823;2.0;60.0;6.0;5818;;;0
5908;0.0;3.0;0.0;5903;5867.0;5950.0;0
5945;2.0;60.0;6.0;5940;;;0
6035;0.0;3.0;0.0;6030;5992.0;6076.0;0
6160;0.0;3.0;0.0;6155;6118.0;6202.0;0
6196;2.0;61.0;6.0;6191;;;0
6288;0.0;4.0;0.0;6283;6245.0;6331.0;0
6419;0.0;4.0;0.0;6414;6375.0;6461.0;0
6545;0.0;0.0;0.0;6540;6503.0;6588.0;0
6581;2.0;61.0;6.0;6576;;;0
6675;0.0;1.0;0.0;6671;6631.0;6719.0;0
6711;2.0;61.0;6.0;6706;;;0
6807;0.0;0.0;0.0;6802;6763.0;6848.0;0
6843;2.0;61.0;6.0;6838;;;0
6932;0.0;4.0;0.0;6928;6890.0;6975.0;0
6967;2.0;61.0;6.0;6962;;;0
7062;0.0;4.0;0.0;7058;7018.0;7105.0;0
7099;2.0;61.0;6.0;7094;;;0
7191;0.0;4.0;0.0;7187;7148.0;7234.0;0
7228;2.0;61.0;6.0;7223;;;0
7321;0.0;1.0;0.0;7316;7277.0;7364.0;0
7451;0.0;1.0;0.0;7446;7407.0;7494.0;0
7487;2.0;61.0;6.0;7482;;;0
7580;0.0;4.0;0.0;7575;7537.0;7622.0;0
7617;2.0;61.0;6.0;7612;;;0
7651;2.0;62.0;6.0;7651;;;0
7708;0.0;4.0;0.0;7703;7665.0;7751.0;0
7745;2.0;61.0;6.0;7740;;;0
7837;0.0;4.0;0.0;7833;7794.0;7879.0;0
7964;0.0;0.0;0.0;7959;7921.0;8006.0;0
8000;2.0;61.0;6.0;7995;;;0
8038;2.0;62.0;6.0;8038;;;0
8091;0.0;4.0;0.0;8086;8048.0;8133.0;0
8218;0.0;4.0;0.0;8213;8175.0;8261.0;0
8255;2.0;61.0;6.0;8250;;;0
8348;0.0;4.0;0.0;8343;8304.0;8390.0;0
8385;2.0;61.0;6.0;8380;;;0
8424;2.0;62.0;6.0;8423;;;0
8475;0.0;0.0;0.0;8470;8432.0;8517.0;0
8512;2.0;61.0;6.0;8507;;;0
8536;2.0;63.0;6.0;8531;;;0
8602;0.0;4.0;0.0;8597;8559.0;8645.0;0
8637;2.0;61.0;6.0;8632;;;0
8732;0.0;1.0;0.0;8727;8688.0;8774.0;0
8768;2.0;61.0;6.0;8763;;;0
8860;0.0;0.0;0.0;8855;8817.0;8902.0;0
8895;2.0;61.0;6.0;8890;;;0
8988;0.0;1.0;0.0;8983;8945.0;9031.0;0
9024;2.0;61.0;6.0;9019;;;0
9117;0.0;1.0;0.0;9112;9074.0;9159.0;0
9153;2.0;61.0;6.0;9148;;;0
9243;0.0;4.0;0.0;9238;9201.0;9285.0;0
9279;2.0;61.0;6.0;9274;;;0
9320;2.0;62.0;6.0;9320;;;0
9371;0.0;0.0;0.0;9366;9328.0;9413.0;0
9407;2.0;61.0;6.0;9402;;;0
9499;0.0;0.0;0.0;9494;9456.0;9541.0;0
9627;0.0;0.0;0.0;9622;9584.0;9669.0;0
9663;2.0;61.0;6.0;9658;;;0
9691;2.0;63.0;6.0;9689;;;0
9755;0.0;0.0;0.0;9750;9712.0;9796.0;0
9791;2.0;60.0;6.0;9786;;;0
9880;0.0;4.0;0.0;9875;9838.0;9922.0;0
9917;2.0;61.0;6.0;9912;;;0
9952;2.0;62.0;6.0;9950;;;0
10008;0.0;4.0;0.0;10004;9965.0;10051.0;0
10045;2.0;60.0;6.0;10040;;;0
10138;0.0;3.0;0.0;10133;10094.0;10179.0;0
10175;2.0;60.0;6.0;10170;;;0
10210;2.0;62.0;6.0;10210;;;0
10263;0.0;3.0;0.0;10258;10221.0;10306.0;0
10300;2.0;60.0;6.0;10295;;;0
10392;0.0;0.0;0.0;10387;10349.0;10433.0;0
10517;0.0;3.0;0.0;10512;10475.0;10559.0;0
10552;2.0;60.0;6.0;10547;;;0
10644;0.0;3.0;0.0;10639;10601.0;10687.0;0
10724;2.0;62.0;6.0;10724;;;0
10774;0.0;3.0;0.0;10769;10730.0;10817.0;0
10843;2.0;62.0;6.0;10841;;;0
10905;0.0;0.0;0.0;10900;10861.0;10946.0;0
10941;2.0;60.0;6.0;10936;;;0
11030;0.0;0.0;0.0;11025;10988.0;11073.0;0
11066;2.0;61.0;6.0;11061;;;0
11160;0.0;0.0;0.0;11155;11116.0;11203.0;0
11290;0.0;3.0;0.0;11285;11246.0;11333.0;0
11326;2.0;60.0;6.0;11321;;;0
11420;0.0;4.0;0.0;11415;11376.0;11463.0;0
11456;2.0;61.0;6.0;11451;;;0
11500;2.0;62.0;6.0;11496;;;0
11551;0.0;4.0;0.0;11547;11507.0;11594.0;0
11587;2.0;61.0;6.0;11582;;;0
11682;0.0;0.0;0.0;11677;11638.0;11725.0;0
11718;2.0;61.0;6.0;11713;;;0
11812;0.0;4.0;0.0;11807;11768.0;11854.0;0
11849;2.0;60.0;6.0;11844;;;0
11939;0.0;3.0;0.0;11935;11896.0;11981.0;0
12066;0.0;4.0;0.0;12061;12023.0;12109.0;0
12103;2.0;60.0;6.0;12098;;;0
12133;2.0;63.0;6.0;12133;;;0
12196;0.0;4.0;0.0;12191;12152.0;12239.0;0
12233;2.0;61.0;6.0;12228;;;0
12326;0.0;1.0;0.0;12321;12282.0;12369.0;0
12456;0.0;3.0;0.0;12451;12412.0;12498.0;0
12519;2.0;63.0;6.0;12519;;;0
12584;0.0;3.0;0.0;12579;12541.0;12628.0;0
12621;2.0;60.0;6.0;12616;;;0
12716;0.0;0.0;0.0;12711;12672.0;12759.0;0
12752;2.0;61.0;6.0;12747;;;0
12847;0.0;0.0;0.0;12843;12803.0;12889.0;0
12883;2.0;61.0;6.0;12878;;;0
12974;0.0;3.0;0.0;12969;12931.0;13016.0;0
13102;0.0;4.0;0.0;13097;13059.0;13145.0;0
13137;2.0;61.0;6.0;13132;;;0
13233;0.0;0.0;0.0;13228;13189.0;13276.0;0
13268;2.0;61.0;6.0;13263;;;0
13363;0.0;3.0;0.0;13358;13319.0;13405.0;0
13400;2.0;60.0;6.0;13395;;;0
13438;2.0;62.0;6.0;13438;;;0
13490;0.0;3.0;0.0;13485;13447.0;13533.0;0
13527;2.0;60.0;6.0;13522;;;0
13621;0.0;4.0;0.0;13616;13577.0;13663.0;0
13658;2.0;61.0;6.0;13653;;;0
13749;0.0;3.0;0.0;13744;13706.0;13793.0;0
13785;2.0;60.0;6.0;13780;;;0
13881;0.0;0.0;0.0;13877;13837.0;13924.0;0
13915;2.0;60.0;6.0;13910;;;0
14012;0.0;3.0;0.0;14007;13968.0;14054.0;0
14049;2.0;60.0;6.0;14044;;;0
14139;0.0;3.0;0.0;14134;14096.0;14182.0;0
14268;0.0;4.0;0.0;14263;14225.0;14311.0;0
14305;2.0;61.0;6.0;14300;;;0
14397;0.0;0.0;0.0;14392;14354.0;14439.0;0
14433;2.0;60.0;6.0;14428;;;0
14472;2.0;62.0;6.0;14472;;;0
14523;0.0;0.0;0.0;14518;14481.0;14566.0;0
14558;2.0;60.0;6.0;14553;;;0
14652;0.0;4.0;0.0;14648;14609.0;14695.0;0
14689;2.0;61.0;6.0;14684;;;0
14783;0.0;0.0;0.0;14778;14739.0;14824.0;1
14819;2.0;60.0;6.0;14814;;;0
14907;0.0;3.0;0.0;14902;14865.0;14950.0;0
14944;2.0;60.0;6.0;14939;;;0
15036;0.0;4.0;0.0;15031;14993.0;15079.0;0
15073;2.0;61.0;6.0;15068;;;0
15165;0.0;3.0;0.0;15160;15122.0;15207.0;0
15291;0.0;3.0;0.0;15286;15249.0;15334.0;0
15326;2.0;60.0;6.0;15321;;;0
15420;0.0;4.0;0.0;15415;15377.0;15463.0;0
15456;2.0;61.0;6.0;15451;;;0
15549;0.0;0.0;0.0;15544;15506.0;15592.0;0
15679;0.0;0.0;0.0;15674;15635.0;15721.0;0
15805;0.0;4.0;0.0;15800;15763.0;15848.0;0
15881;2.0;62.0;6.0;15876;;;0
15934;0.0;0.0;0.0;15929;15891.0;15976.0;0
16010;2.0;62.0;6.0;16007;;;0
16061;0.0;3.0;0.0;16056;16018.0;16103.0;0
16098;2.0;61.0;6.0;16093;;;0
16189;0.0;4.0;0.0;16184;16146.0;16231.0;0
16226;2.0;60.0;6.0;16221;;;0
16317;0.0;0.0;0.0;16312;16274.0;16358.0;0
16352;2.0;60.0;6.0;16347;;;0
16442;0.0;4.0;0.0;16437;16400.0;16484.0;0
16478;2.0;61.0;6.0;16473;;;0
16569;0.0;4.0;0.0;16564;16526.0;16612.0;0
16605;2.0;60.0;6.0;16600;;;0
16699;0.0;3.0;0.0;16694;16655.0;16742.0;0
16736;2.0;60.0;6.0;16731;;;0
16829;0.0;4.0;0.0;16824;16785.0;16872.0;0
16866;2.0;61.0;6.0;16861;;;0
16910;2.0;62.0;6.0;16905;;;0
16960;0.0;1.0;0.0;16955;16916.0;17002.0;0
16995;2.0;61.0;6.0;16990;;;0
17088;0.0;0.0;0.0;17083;17045.0;17130.0;0
17156;2.0;63.0;6.0;17156;;;0
17216;0.0;0.0;0.0;17211;17173.0;17258.0;0
17252;2.0;61.0;6.0;17247;;;0
17343;0.0;4.0;0.0;17338;17300.0;17386.0;0
17380;2.0;61.0;6.0;17375;;;0
17473;0.0;1.0;0.0;17468;17429.0;17515.0;0
17549;2.0;63.0;6.0;17549;;;0
17600;0.0;4.0;0.0;17595;17557.0;17643.0;0
17636;2.0;61.0;6.0;17631;;;0
17731;0.0;1.0;0.0;17726;17687.0;17774.0;0
17767;2.0;61.0;6.0;17762;;;0
17861;0.0;1.0;0.0;17857;17817.0;17903.0;0
17898;2.0;61.0;6.0;17893;;;0
17988;0.0;1.0;0.0;17983;17945.0;18031.0;0
18024;2.0;61.0;6.0;18019;;;0
18117;0.0;1.0;0.0;18112;18074.0;18159.0;0
18153;2.0;61.0;6.0;18148;;;0
18243;0.0;0.0;0.0;18238;18201.0;18285.0;0
18371;0.0;4.0;0.0;18366;18328.0;18414.0;0
18408;2.0;61.0;6.0;18403;;;0
18500;0.0;4.0;0.0;18495;18457.0;18543.0;0
18536;2.0;61.0;6.0;18531;;;0
18630;0.0;0.0;0.0;18625;18586.0;18673.0;0
18759;0.0;4.0;0.0;18754;18716.0;18802.0;0
18889;0.0;4.0;0.0;18884;18845.0;18931.0;0
18925;2.0;61.0;6.0;18920;;;0
19015;0.0;3.0;0.0;19011;18973.0;19058.0;0
19052;2.0;60.0;6.0;19047;;;0
19144;0.0;4.0;0.0;19139;19101.0;19186.0;0
19180;2.0;61.0;6.0;19175;;;0
19272;0.0;0.0;0.0;19268;19229.0;19313.0;0
19308;2.0;61.0;6.0;19303;;;0
19395;0.0;0.0;0.0;19390;19354.0;19437.0;0
19431;2.0;60.0;6.0;19426;;;0
19522;0.0;4.0;0.0;19517;19479.0;19565.0;0
19558;2.0;61.0;6.0;19553;;;0
19651;0.0;1.0;0.0;19646;19608.0;19694.0;0
19686;2.0;61.0;6.0;19681;;;0
19780;0.0;1.0;0.0;19775;19737.0;19823.0;0
19816;2.0;61.0;6.0;19811;;;0
19856;2.0;62.0;6.0;19856;;;0
19910;0.0;1.0;0.0;19905;19866.0;19954.0;0
19944;2.0;61.0;6.0;19939;;;0
19996;2.0;62.0;6.0;19993;;;0
20042;0.0;1.0;0.0;20037;19998.0;20085.0;0
20079;2.0;61.0;6.0;20074;;;0
20172;0.0;4.0;0.0;20167;20128.0;20214.0;0
20207;2.0;61.0;6.0;20202;;;0
20300;0.0;3.0;0.0;20296;20257.0;20342.0;0
20426;0.0;4.0;0.0;20421;20384.0;20469.0;0
20463;2.0;61.0;6.0;20458;;;0
20495;2.0;63.0;6.0;20493;;;0
20555;0.0;4.0;0.0;20550;20512.0;20597.0;0
20592;2.0;61.0;6.0;20587;;;0
20683;0.0;3.0;0.0;20679;20640.0;20726.0;0
20720;2.0;60.0;6.0;20715;;;0
20755;2.0;62.0;6.0;20755;;;0
20812;0.0;0.0;0.0;20807;20769.0;20855.0;0
20847;2.0;60.0;6.0;20842;;;0
20941;0.0;0.0;0.0;20936;20898.0;20983.0;0
20977;2.0;60.0;6.0;20972;;;0
21020;2.0;62.0;6.0;21020;;;0
21067;0.0;3.0;0.0;21062;21025.0;21109.0;0
21102;2.0;60.0;6.0;21097;;;0
21195;0.0;3.0;0.0;21190;21152.0;21238.0;0
21232;2.0;60.0;6.0;21227;;;0
21267;2.0;62.0;6.0;21267;;;0
21325;0.0;3.0;0.0;21320;21281.0;21368.0;0
21455;0.0;4.0;0.0;21450;21411.0;21497.0;0
21582;0.0;4.0;0.0;21577;21539.0;21625.0;0
21618;2.0;60.0;6.0;21613;;;0
21712;0.0;4.0;0.0;21707;21668.0;21754.0;0
21748;2.0;61.0;6.0;21743;;;0
21839;0.0;1.0;0.0;21835;21796.0;21880.0;0
21876;2.0;61.0;6.0;21871;;;0
21963;0.0;1.0;0.0;21959;21921.0;22005.0;0
22000;2.0;61.0;6.0;21995;;;0
22089;0.0;4.0;0.0;22084;22047.0;22131.0;0
22125;2.0;60.0;6.0;22120;;;0
22217;0.0;4.0;0.0;22213;22174.0;22245.0;0
22254;2.0;60.0;6.0;22249;;;0
22301;0.0;4.0;0.0;22297;22273.0;22349.0;0
22336;2.0;61.0;6.0;22331;;;0
22369;2.0;62.0;6.0;22366;;;0
22446;0.0;4.0;0.0;22442;22397.0;22489.0;0
22575;0.0;0.0;0.0;22570;22532.0;22617.0;0
22612;2.0;60.0;6.0;22607;;;0
22701;0.0;0.0;0.0;22696;22659.0;22744.0;0
22737;2.0;61.0;6.0;22732;;;0
22830;0.0;4.0;0.0;22825;22787.0;22872.0;0
22906;2.0;62.0;6.0;22906;;;0
22956;0.0;3.0;0.0;22951;22914.0;22998.0;0
22992;2.0;60.0;6.0;22987;;;0
23084;0.0;0.0;0.0;23079;23041.0;23127.0;0
23213;0.0;4.0;0.0;23209;23170.0;23256.0;0
23250;2.0;60.0;6.0;23245;;;0
23344;0.0;0.0;0.0;23340;23300.0;23387.0;0
23380;2.0;60.0;6.0;23375;;;0
23475;0.0;0.0;0.0;23470;23431.0;23518.0;0
23511;2.0;61.0;6.0;23506;;;0
23604;0.0;4.0;0.0;23600;23561.0;23646.0;0
23641;2.0;61.0;6.0;23636;;;0
23732;0.0;3.0;0.0;23727;23689.0;23774.0;0
23859;0.0;4.0;0.0;23854;23816.0;23902.0;0
23896;2.0;61.0;6.0;23891;;;0
23989;0.0;1.0;0.0;23984;23945.0;24018.0;0
24025;2.0;61.0;6.0;24020;;;0
24077;0.0;4.0;0.0;24072;24047.0;24095.0;0
24132;1.0;37.0;100.0;24132;24113.0;24169.0;1
24163;2.0;61.0;6.0;24158;;;0
24243;0.0;3.0;0.0;24238;24206.0;24285.0;0
24280;2.0;60.0;6.0;24275;;;0
24371;0.0;4.0;0.0;24366;24328.0;24414.0;0
24500;0.0;0.0;0.0;24495;24457.0;24543.0;0
24536;2.0;61.0;6.0;24531;;;0
24583;2.0;62.0;6.0;24579;;;0
24629;0.0;0.0;0.0;24624;24586.0;24671.0;0
24683;2.0;63.0;6.0;24680;;;0
24756;0.0;3.0;0.0;24752;24713.0;24797.0;0
24881;0.0;3.0;0.0;24876;24839.0;24922.0;0
24918;2.0;61.0;6.0;24913;;;0
25006;0.0;0.0;0.0;25003;24964.0;25046.0;0
25042;2.0;61.0;6.0;25037;;;0
25126;0.0;0.0;0.0;25121;25086.0;25167.0;0
25162;2.0;60.0;6.0;25157;;;0
25250;0.0;4.0;0.0;25246;25208.0;25291.0;0
25286;2.0;60.0;6.0;25281;;;0
25375;0.0;4.0;0.0;25370;25333.0;25416.0;0
25411;2.0;60.0;6.0;25406;;;0
25500;0.0;4.0;0.0;25495;25458.0;25541.0;0
25536;2.0;61.0;6.0;25531;;;0
25625;0.0;0.0;0.0;25620;25583.0;25665.0;0
25745;0.0;3.0;0.0;25741;25705.0;25787.0;0
25810;2.0;63.0;6.0;25805;;;0
25871;0.0;4.0;0.0;25866;25829.0;25913.0;0
25907;2.0;61.0;6.0;25902;;;0
25997;0.0;0.0;0.0;25992;25955.0;26037.0;0
26033;2.0;60.0;6.0;26028;;;0
26119;0.0;4.0;0.0;26114;26078.0;26160.0;0
26156;2.0;61.0;6.0;26151;;;0
26194;2.0;62.0;6.0;26194;;;0
26244;0.0;4.0;0.0;26239;26202.0;26284.0;0
26280;2.0;61.0;6.0;26275;;;0
26365;0.0;4.0;0.0;26360;26324.0;26407.0;0
26401;2.0;61.0;6.0;26396;;;0
26491;0.0;4.0;0.0;26486;26449.0;26532.0;0
26527;2.0;61.0;6.0;26522;;;0
26616;0.0;3.0;0.0;26612;26574.0;26658.0;0
26653;2.0;60.0;6.0;26648;;;0
26686;2.0;63.0;6.0;26681;;;0
26742;0.0;4.0;0.0;26737;26700.0;26784.0;0
26779;2.0;61.0;6.0;26774;;;0
26870;0.0;3.0;0.0;26865;26827.0;26911.0;0
26906;2.0;60.0;6.0;26901;;;0
26994;0.0;4.0;0.0;26989;26952.0;27036.0;0
27030;2.0;61.0;6.0;27025;;;0
27121;0.0;4.0;0.0;27116;27078.0;27164.0;0
27191;2.0;62.0;6.0;27191;;;0
27250;0.0;3.0;0.0;27245;27207.0;27293.0;0
27285;2.0;60.0;6.0;27280;;;0
27379;0.0;3.0;0.0;27374;27336.0;27420.0;0
27414;2.0;60.0;6.0;27409;;;0
27503;0.0;0.0;0.0;27498;27461.0;27545.0;0
27538;2.0;61.0;6.0;27533;;;0
27573;2.0;62.0;6.0;27569;;;0
27630;0.0;4.0;0.0;27625;27587.0;27672.0;0
27666;2.0;61.0;6.0;27661;;;0
27758;0.0;4.0;0.0;27753;27715.0;27801.0;0
27887;0.0;0.0;0.0;27882;27844.0;27928.0;0
27923;2.0;60.0;6.0;27918;;;0
28011;0.0;4.0;0.0;28006;27969.0;28053.0;0
28138;0.0;4.0;0.0;28133;28095.0;28180.0;0
28175;2.0;61.0;6.0;28170;;;0
28264;0.0;3.0;0.0;28259;28222.0;28306.0;0
28392;0.0;0.0;0.0;28387;28349.0;28435.0;0
28428;2.0;60.0;6.0;28423;;;0
28521;0.0;0.0;0.0;28516;28478.0;28563.0;0
28557;2.0;61.0;6.0;28552;;;0
28649;0.0;0.0;0.0;28644;28606.0;28691.0;0
28685;2.0;61.0;6.0;28680;;;0
28776;0.0;4.0;0.0;28771;28733.0;28818.0;0
28813;2.0;61.0;6.0;28808;;;0
28904;0.0;4.0;0.0;28899;28861.0;28946.0;0
29032;0.0;4.0;0.0;29027;28989.0;29074.0;0
29069;2.0;61.0;6.0;29064;;;0
29159;0.0;4.0;0.0;29154;29116.0;29201.0;0
29196;2.0;61.0;6.0;29191;;;0
29286;0.0;0.0;0.0;29281;29243.0;29326.0;0
29322;2.0;60.0;6.0;29317;;;0
29356;2.0;62.0;6.0;29356;;;0
29406;0.0;3.0;0.0;29401;29366.0;29447.0;0
29443;2.0;60.0;6.0;29438;;;0
29531;0.0;4.0;0.0;29526;29489.0;29572.0;0
29568;2.0;61.0;6.0;29563;;;0
29656;0.0;0.0;0.0;29651;29614.0;29697.0;0
29691;2.0;60.0;6.0;29686;;;0
29781;0.0;4.0;0.0;29777;29739.0;29823.0;0
29851;2.0;62.0;6.0;29851;;;0
29908;0.0;0.0;0.0;29903;29865.0;29950.0;0
29943;2.0;60.0;6.0;29938;;;0
30035;0.0;4.0;0.0;30030;29992.0;30077.0;0
30163;0.0;0.0;0.0;30158;30120.0;30204.0;0
30197;2.0;60.0;6.0;30192;;;0
30286;0.0;3.0;0.0;30281;30245.0;30328.0;0
30322;2.0;60.0;6.0;30317;;;0
30414;0.0;0.0;0.0;30409;30371.0;30456.0;0
30450;2.0;60.0;6.0;30445;;;0
30542;0.0;0.0;0.0;30537;30499.0;30583.0;0
30578;2.0;60.0;6.0;30573;;;0
30665;0.0;4.0;0.0;30660;30624.0;30706.0;0
30701;2.0;61.0;6.0;30696;;;0
30790;0.0;4.0;0.0;30785;30748.0;30832.0;0
30826;2.0;61.0;6.0;30821;;;0
30916;0.0;0.0;0.0;30911;30874.0;30955.0;0
30952;2.0;61.0;6.0;30947;;;0
30985;2.0;62.0;6.0;30980;;;0
31034;0.0;4.0;0.0;31030;30994.0;31075.0;0
31071;2.0;61.0;6.0;31066;;;0
31158;0.0;4.0;0.0;31153;31116.0;31198.0;0
31280;0.0;3.0;0.0;31275;31239.0;31320.0;0
31317;2.0;60.0;6.0;31312;;;0
31401;0.0;3.0;0.0;31396;31360.0;31443.0;0
31438;2.0;61.0;6.0;31433;;;0
31527;0.0;0.0;0.0;31522;31485.0;31567.0;0
31562;2.0;61.0;6.0;31557;;;0
31648;0.0;3.0;0.0;31643;31607.0;31690.0;0
31684;2.0;60.0;6.0;31679;;;0
31714;2.0;63.0;6.0;31711;;;0
31775;0.0;4.0;0.0;31771;31732.0;31817.0;0
31812;2.0;61.0;6.0;31807;;;0
31902;0.0;0.0;0.0;31897;31859.0;31942.0;0
31938;2.0;60.0;6.0;31933;;;0
32024;0.0;4.0;0.0;32019;31983.0;32066.0;0
32060;2.0;61.0;6.0;32055;;;0
32090;2.0;63.0;6.0;32086;;;0
32151;0.0;4.0;0.0;32146;32108.0;32192.0;0
32187;2.0;61.0;6.0;32182;;;0
32275;0.0;3.0;0.0;32271;32233.0;32317.0;0
32312;2.0;60.0;6.0;32307;;;0
32403;0.0;4.0;0.0;32398;32360.0;32446.0;0
32439;2.0;61.0;6.0;32434;;;0
32532;0.0;0.0;0.0;32528;32489.0;32573.0;0
32656;0.0;3.0;0.0;32651;32614.0;32698.0;0
32692;2.0;61.0;6.0;32687;;;0
32783;0.0;4.0;0.0;32778;32740.0;32824.0;0
32820;2.0;60.0;6.0;32815;;;0
32908;0.0;4.0;0.0;32904;32866.0;32951.0;0
32945;2.0;61.0;6.0;32940;;;0
33037;0.0;4.0;0.0;33032;32994.0;33079.0;0
33165;0.0;0.0;0.0;33160;33122.0;33208.0;0
33201;2.0;60.0;6.0;33196;;;0
33294;0.0;4.0;0.0;33289;33251.0;33337.0;0
33330;2.0;61.0;6.0;33325;;;0
33423;0.0;4.0;0.0;33418;33380.0;33464.0;0
33547;0.0;3.0;0.0;33542;33505.0;33589.0;0
33584;2.0;61.0;6.0;33579;;;0
33675;0.0;4.0;0.0;33670;33632.0;33718.0;0
33711;2.0;61.0;6.0;33706;;;0
33804;0.0;0.0;0.0;33799;33761.0;33845.0;0
33840;2.0;60.0;6.0;33835;;;0
33929;0.0;4.0;0.0;33924;33887.0;33971.0;0
33996;2.0;63.0;6.0;33996;;;0
34057;0.0;0.0;0.0;34052;34014.0;34099.0;0
34093;2.0;61.0;6.0;34088;;;0
34185;0.0;4.0;0.0;34180;34142.0;34226.0;0
34221;2.0;60.0;6.0;34216;;;0
34310;0.0;0.0;0.0;34305;34268.0;34353.0;0
34347;2.0;61.0;6.0;34342;;;0
34439;0.0;4.0;0.0;34434;34396.0;34482.0;0
34475;2.0;61.0;6.0;34470;;;0
34509;2.0;62.0;6.0;34504;;;0
34568;0.0;3.0;0.0;34563;34525.0;34610.0;0
34629;2.0;63.0;6.0;34629;;;0
34694;0.0;4.0;0.0;34689;34652.0;34737.0;0
34730;2.0;60.0;6.0;34725;;;0
34823;0.0;4.0;0.0;34819;34780.0;34865.0;0
34860;2.0;60.0;6.0;34855;;;0
34951;0.0;0.0;0.0;34946;34908.0;34993.0;0
34987;2.0;60.0;6.0;34982;;;0
35077;0.0;4.0;0.0;35072;35035.0;35120.0;0
35114;2.0;61.0;6.0;35109;;;0
35154;2.0;62.0;6.0;35153;;;0
35206;0.0;4.0;0.0;35201;35163.0;35248.0;0
35271;2.0;63.0;6.0;35271;;;0
35332;0.0;4.0;0.0;35328;35290.0;35375.0;0
35369;2.0;61.0;6.0;35364;;;0
35462;0.0;1.0;0.0;35458;35418.0;35504.0;0
35498;2.0;61.0;6.0;35493;;;0
35589;0.0;4.0;0.0;35584;35546.0;35631.0;0
35655;2.0;63.0;6.0;35652;;;0
35716;0.0;1.0;0.0;35711;35673.0;35759.0;0
35753;2.0;61.0;6.0;35748;;;0
35846;0.0;4.0;0.0;35841;35802.0;35888.0;0
35973;0.0;4.0;0.0;35969;35930.0;36016.0;0
36009;2.0;61.0;6.0;36004;;;0
36049;2.0;63.0;6.0;36049;;;0
36102;0.0;0.0;0.0;36097;36059.0;36144.0;0
36138;2.0;61.0;6.0;36133;;;0
36230;0.0;4.0;0.0;36225;36187.0;36273.0;0
36301;2.0;63.0;6.0;36301;;;0
36360;0.0;4.0;0.0;36355;36316.0;36403.0;0
36491;0.0;0.0;0.0;36486;36447.0;36534.0;0
36527;2.0;60.0;6.0;36522;;;0
36559;2.0;63.0;6.0;36559;;;0
36620;0.0;4.0;0.0;36615;36577.0;36664.0;0
36656;2.0;61.0;6.0;36651;;;0
36686;2.0;63.0;6.0;36684;;;0
36752;0.0;0.0;0.0;36747;36708.0;36793.0;0
36787;2.0;61.0;6.0;36782;;;0
36877;0.0;3.0;0.0;36872;36835.0;36920.0;0
36914;2.0;60.0;6.0;36909;;;0
37007;0.0;4.0;0.0;37002;36963.0;37050.0;0
37043;2.0;61.0;6.0;37038;;;0
37081;2.0;62.0;6.0;37080;;;0
37137;0.0;0.0;0.0;37132;37093.0;37180.0;0
37173;2.0;61.0;6.0;37168;;;0
37266;0.0;4.0;0.0;37261;37223.0;37308.0;0
37302;2.0;61.0;6.0;37297;;;0
37394;0.0;3.0;0.0;37389;37351.0;37436.0;0
37521;0.0;4.0;0.0;37516;37478.0;37563.0;0
37558;2.0;61.0;6.0;37553;;;0
37601;2.0;63.0;6.0;37601;;;0
37649;0.0;4.0;0.0;37644;37606.0;37691.0;0
37721;2.0;62.0;6.0;37721;;;0
37777;0.0;4.0;0.0;37773;37734.0;37819.0;0
37813;2.0;61.0;6.0;37808;;;0
37847;2.0;62.0;6.0;37845;;;0
37903;0.0;3.0;0.0;37898;37861.0;37945.0;0
37940;2.0;60.0;6.0;37935;;;0
38030;0.0;0.0;0.0;38025;37987.0;38072.0;0
38066;2.0;61.0;6.0;38061;;;0
38102;2.0;62.0;6.0;38100;;;0
38157;0.0;0.0;0.0;38152;38114.0;38199.0;0
38194;2.0;60.0;6.0;38189;;;0
38283;0.0;4.0;0.0;38278;38241.0;38325.0;0
38319;2.0;61.0;6.0;38314;;;0
38352;2.0;63.0;6.0;38352;;;0
38411;0.0;0.0;0.0;38406;38368.0;38452.0;0
38447;2.0;61.0;6.0;38442;;;0
38536;0.0;1.0;0.0;38531;38494.0;38578.0;0
38571;2.0;61.0;6.0;38566;;;0
38615;2.0;63.0;6.0;38612;;;0
38664;0.0;1.0;0.0;38659;38621.0;38705.0;0
38700;2.0;61.0;6.0;38695;;;0
38789;0.0;0.0;0.0;38784;38747.0;38831.0;0
38826;2.0;61.0;6.0;38821;;;0
38859;2.0;63.0;6.0;38855;;;0
38916;0.0;1.0;0.0;38911;38873.0;38957.0;0
38953;2.0;61.0;6.0;38948;;;0
39041;0.0;4.0;0.0;39036;38999.0;39084.0;0
39078;2.0;61.0;6.0;39073;;;0
39171;0.0;1.0;0.0;39166;39127.0;39213.0;0
39207;2.0;61.0;6.0;39202;;;0
39239;2.0;63.0;6.0;39238;;;0
39299;0.0;4.0;0.0;39294;39256.0;39341.0;0
39336;2.0;60.0;6.0;39331;;;0
39427;0.0;4.0;0.0;39422;39384.0;39468.0;0
39463;2.0;61.0;6.0;39458;;;0
39552;0.0;3.0;0.0;39547;39510.0;39595.0;0
39681;0.0;0.0;0.0;39676;39638.0;39723.0;0
39715;2.0;60.0;6.0;39710;;;0
39749;2.0;62.0;6.0;39749;;;0
39809;0.0;4.0;0.0;39806;39766.0;39850.0;0
39934;0.0;0.0;0.0;39929;39892.0;39975.0;0
39971;2.0;61.0;6.0;39966;;;0
40059;0.0;3.0;0.0;40054;40017.0;40101.0;0
40095;2.0;60.0;6.0;40090;;;0
40185;0.0;3.0;0.0;40180;40143.0;40227.0;0
40221;2.0;60.0;6.0;40216;;;0
40311;0.0;0.0;0.0;40306;40269.0;40351.0;0
40433;0.0;0.0;0.0;40428;40392.0;40474.0;0
40469;2.0;60.0;6.0;40464;;;0
40558;0.0;4.0;0.0;40553;40516.0;40600.0;0
40593;2.0;61.0;6.0;40588;;;0
40684;0.0;3.0;0.0;40680;40642.0;40724.0;0
40806;0.0;3.0;0.0;40801;40765.0;40847.0;0
40931;0.0;4.0;0.0;40926;40889.0;40972.0;0
40967;2.0;61.0;6.0;40962;;;0
41056;0.0;3.0;0.0;41051;41014.0;41097.0;0
41093;2.0;60.0;6.0;41088;;;0
41179;0.0;3.0;0.0;41174;41138.0;41221.0;0
41306;0.0;4.0;0.0;41301;41263.0;41348.0;0
41341;2.0;60.0;6.0;41336;;;0
41432;0.0;3.0;0.0;41427;41390.0;41473.0;0
41557;0.0;3.0;0.0;41552;41515.0;41600.0;0
41594;2.0;60.0;6.0;41589;;;0
41686;0.0;4.0;0.0;41681;41643.0;41728.0;0
41746;2.0;63.0;6.0;41743;;;0
41814;0.0;3.0;0.0;41809;41771.0;41857.0;0
41850;2.0;60.0;6.0;41845;;;0
41944;0.0;4.0;0.0;41939;41900.0;41987.0;0
41980;2.0;60.0;6.0;41975;;;0
42075;0.0;3.0;0.0;42070;42031.0;42118.0;0
42112;2.0;60.0;6.0;42107;;;0
42204;0.0;0.0;0.0;42199;42161.0;42248.0;0
42240;2.0;61.0;6.0;42235;;;0
42336;0.0;4.0;0.0;42331;42292.0;42379.0;0
42372;2.0;60.0;6.0;42367;;;0
42465;0.0;4.0;0.0;42461;42422.0;42509.0;0
42597;0.0;4.0;0.0;42592;42553.0;42640.0;0
42634;2.0;61.0;6.0;42629;;;0
42726;0.0;4.0;0.0;42721;42683.0;42769.0;0
42763;2.0;61.0;6.0;42759;;;0
42856;0.0;4.0;0.0;42851;42812.0;42899.0;0
42890;2.0;61.0;6.0;42885;;;0
42938;2.0;62.0;6.0;42936;;;0
42987;0.0;3.0;0.0;42982;42943.0;43030.0;0
43022;2.0;60.0;6.0;43017;;;0
43116;0.0;4.0;0.0;43111;43073.0;43159.0;0
43247;0.0;4.0;0.0;43243;43203.0;43289.0;0
43325;2.0;62.0;6.0;43323;;;0
43375;0.0;4.0;0.0;43370;43332.0;43418.0;0
43410;2.0;61.0;6.0;43405;;;0
43506;0.0;4.0;0.0;43501;43462.0;43548.0;0
43543;2.0;60.0;6.0;43538;;;0
43633;0.0;3.0;0.0;43628;43590.0;43676.0;0
43763;0.0;4.0;0.0;43758;43719.0;43807.0;0
43897;0.0;0.0;0.0;43892;43852.0;43940.0;0
44028;0.0;4.0;0.0;44023;43984.0;44072.0;0
44160;0.0;4.0;0.0;44156;44116.0;44203.0;0
44220;2.0;63.0;6.0;44216;;;0
44290;0.0;0.0;0.0;44285;44246.0;44334.0;0
44326;2.0;60.0;6.0;44321;;;0
44369;2.0;62.0;6.0;44369;;;0
44422;0.0;4.0;0.0;44417;44378.0;44466.0;0
44458;2.0;61.0;6.0;44453;;;0
44554;0.0;4.0;0.0;44549;44510.0;44597.0;0
44684;0.0;3.0;0.0;44679;44640.0;44727.0;0
44720;2.0;60.0;6.0;44715;;;0
44813;0.0;4.0;0.0;44808;44770.0;44856.0;0
44848;2.0;61.0;6.0;44843;;;0
44944;0.0;0.0;0.0;44939;44900.0;44986.0;0
44980;2.0;61.0;6.0;44975;;;0
45072;0.0;3.0;0.0;45067;45029.0;45115.0;0
45145;2.0;62.0;6.0;45145;;;0
45202;0.0;4.0;0.0;45197;45158.0;45245.0;0
45239;2.0;61.0;6.0;45234;;;0
45333;0.0;4.0;0.0;45328;45289.0;45375.0;0
45369;2.0;61.0;6.0;45364;;;0
45402;2.0;63.0;6.0;45402;;;0
45461;0.0;3.0;0.0;45457;45418.0;45503.0;0
45499;2.0;61.0;6.0;45494;;;0
45587;0.0;4.0;0.0;45583;45545.0;45630.0;0
45624;2.0;61.0;6.0;45619;;;0
45670;2.0;62.0;6.0;45670;;;0
45717;0.0;4.0;0.0;45713;45673.0;45759.0;0
45754;2.0;61.0;6.0;45749;;;0
45843;0.0;4.0;0.0;45838;45801.0;45885.0;0
45907;2.0;63.0;6.0;45904;;;0
45970;0.0;4.0;0.0;45965;45927.0;46012.0;0
46006;2.0;61.0;6.0;46001;;;0
46096;0.0;4.0;0.0;46091;46054.0;46138.0;0
46222;0.0;4.0;0.0;46217;46180.0;46264.0;0
46258;2.0;61.0;6.0;46253;;;0
46350;0.0;4.0;0.0;46345;46307.0;46392.0;0
46476;0.0;0.0;0.0;46471;46434.0;46518.0;0
46511;2.0;60.0;6.0;46506;;;0
46604;0.0;0.0;0.0;46599;46561.0;46645.0;0
46640;2.0;60.0;6.0;46635;;;0
46729;0.0;3.0;0.0;46724;46687.0;46772.0;0
46766;2.0;61.0;6.0;46761;;;0
46859;0.0;4.0;0.0;46854;46815.0;46901.0;0
46896;2.0;61.0;6.0;46891;;;0
46987;0.0;3.0;0.0;46982;46944.0;47029.0;0
47056;2.0;62.0;6.0;47056;;;0
47113;0.0;4.0;0.0;47108;47071.0;47156.0;0
47150;2.0;61.0;6.0;47145;;;0
47242;0.0;4.0;0.0;47237;47199.0;47284.0;0
47279;2.0;61.0;6.0;47274;;;0
47369;0.0;0.0;0.0;47364;47326.0;47412.0;0
47405;2.0;60.0;6.0;47400;;;0
47498;0.0;4.0;0.0;47494;47455.0;47541.0;0
47535;2.0;61.0;6.0;47530;;;0
47574;2.0;62.0;6.0;47570;;;0
47629;0.0;4.0;0.0;47624;47585.0;47671.0;0
47666;2.0;61.0;6.0;47661;;;0
47756;0.0;0.0;0.0;47751;47713.0;47799.0;0
47885;0.0;0.0;0.0;47880;47842.0;47927.0;0
47921;2.0;61.0;6.0;47916;;;0
48013;0.0;3.0;0.0;48008;47970.0;48054.0;0
48050;2.0;60.0;6.0;48045;;;0
48138;0.0;4.0;0.0;48134;48096.0;48179.0;0
48174;2.0;61.0;6.0;48169;;;0
48263;0.0;4.0;0.0;48258;48221.0;48304.0;0
48387;0.0;0.0;0.0;48382;48345.0;48428.0;0
48423;2.0;61.0;6.0;48418;;;0
48512;0.0;3.0;0.0;48507;48470.0;48554.0;0
48549;2.0;60.0;6.0;48544;;;0
48638;0.0;4.0;0.0;48633;48596.0;48680.0;0
48675;2.0;61.0;6.0;48670;;;0
48712;2.0;62.0;6.0;48712;;;0
48766;0.0;4.0;0.0;48761;48723.0;48808.0;0
48803;2.0;61.0;6.0;48798;;;0
48893;0.0;3.0;0.0;48888;48850.0;48935.0;0
48929;2.0;60.0;6.0;48924;;;0
49021;0.0;4.0;0.0;49016;48978.0;49064.0;0
49151;0.0;4.0;0.0;49146;49107.0;49193.0;0
49187;2.0;61.0;6.0;49182;;;0
49216;2.0;63.0;6.0;49216;;;0
49279;0.0;3.0;0.0;49274;49236.0;49322.0;0
49316;2.0;60.0;6.0;49311;;;0
49409;0.0;4.0;0.0;49404;49365.0;49452.0;0
49445;2.0;61.0;6.0;49440;;;0
49478;2.0;63.0;6.0;49478;;;0
49540;0.0;4.0;0.0;49535;49496.0;49583.0;0
49577;2.0;61.0;6.0;49572;;;0
49669;0.0;4.0;0.0;49664;49626.0;49712.0;0
49798;0.0;4.0;0.0;49793;49755.0;49841.0;0
49834;2.0;61.0;6.0;49829;;;0
49929;0.0;1.0;0.0;49924;49885.0;49972.0;0
49965;2.0;61.0;6.0;49960;;;0
50006;2.0;62.0;6.0;50005;;;0
50060;0.0;0.0;0.0;50055;50016.0;50103.0;0
50097;2.0;61.0;6.0;50092;;;0
50191;0.0;1.0;0.0;50186;50147.0;50235.0;0
50227;2.0;61.0;6.0;50222;;;0
50324;0.0;4.0;0.0;50319;50279.0;50367.0;0
50360;2.0;61.0;6.0;50355;;;0
50394;2.0;62.0;6.0;50394;;;0
50454;0.0;3.0;0.0;50449;50410.0;50497.0;0
50491;2.0;60.0;6.0;50486;;;0
50524;2.0;62.0;6.0;50519;;;0
50584;0.0;4.0;0.0;50579;50540.0;50628.0;0
50716;0.0;4.0;0.0;50712;50672.0;50758.0;0
50844;0.0;4.0;0.0;50839;50801.0;50887.0;0
50881;2.0;61.0;6.0;50876;;;0
50974;0.0;4.0;0.0;50969;50930.0;51018.0;0
51010;2.0;61.0;6.0;51005;;;0
51108;0.0;0.0;0.0;51103;51063.0;51151.0;0
51145;2.0;60.0;6.0;51140;;;0
51237;0.0;4.0;0.0;51232;51194.0;51281.0;0
51272;2.0;61.0;6.0;51267;;;0
51371;0.0;4.0;0.0;51366;51326.0;51414.0;0
51407;2.0;61.0;6.0;51402;;;0
51502;0.0;0.0;0.0;51497;51458.0;51546.0;0
51538;2.0;61.0;6.0;51533;;;0
51634;0.0;4.0;0.0;51629;51590.0;51678.0;0
51670;2.0;61.0;6.0;51665;;;0
51719;2.0;62.0;6.0;51719;;;0
51767;0.0;4.0;0.0;51762;51722.0;51810.0;0
51804;2.0;61.0;6.0;51799;;;0
51897;0.0;3.0;0.0;51892;51853.0;51941.0;0
51932;2.0;60.0;6.0;51927;;;0
52029;0.0;0.0;0.0;52024;51985.0;52071.0;0
52065;2.0;61.0;6.0;52060;;;0
52157;0.0;3.0;0.0;52152;52114.0;52200.0;0
52220;2.0;63.0;6.0;52218;;;0
52287;0.0;4.0;0.0;52282;52243.0;52330.0;0
52323;2.0;60.0;6.0;52318;;;0
52417;0.0;4.0;0.0;52412;52373.0;52459.0;0
52453;2.0;61.0;6.0;52448;;;0
52545;0.0;3.0;0.0;52541;52502.0;52586.0;0
52583;2.0;60.0;6.0;52578;;;0
52670;0.0;4.0;0.0;52665;52628.0;52713.0;0
52707;2.0;61.0;6.0;52702;;;0
52800;0.0;1.0;0.0;52795;52756.0;52843.0;0
52836;2.0;61.0;6.0;52831;;;0
52930;0.0;4.0;0.0;52925;52886.0;52973.0;0
52966;2.0;60.0;6.0;52961;;;0
53008;2.0;62.0;6.0;53008;;;0
53061;0.0;0.0;0.0;53056;53017.0;53103.0;0
53188;0.0;3.0;0.0;53183;53145.0;53231.0;0
53224;2.0;60.0;6.0;53219;;;0
53318;0.0;4.0;0.0;53313;53274.0;53361.0;0
53353;2.0;60.0;6.0;53348;;;0
53449;0.0;0.0;0.0;53444;53405.0;53491.0;0
53485;2.0;60.0;6.0;53480;;;0
53523;2.0;62.0;6.0;53519;;;0
53577;0.0;3.0;0.0;53572;53534.0;53620.0;0
53708;0.0;3.0;0.0;53703;53664.0;53752.0;0
53772;2.0;63.0;6.0;53772;;;0
53841;0.0;0.0;0.0;53836;53796.0;53884.0;0
53878;2.0;60.0;6.0;53873;;;0
53971;0.0;3.0;0.0;53966;53927.0;54015.0;0
54008;2.0;60.0;6.0;54003;;;0
54103;0.0;0.0;0.0;54098;54059.0;54146.0;0
54138;2.0;61.0;6.0;54133;;;0
54234;0.0;3.0;0.0;54229;54190.0;54277.0;0
54271;2.0;60.0;6.0;54266;;;0
54363;0.0;3.0;0.0;54358;54320.0;54406.0;0
54399;2.0;60.0;6.0;54394;;;0
54493;0.0;3.0;0.0;54489;54449.0;54536.0;0
54530;2.0;60.0;6.0;54525;;;0
54624;0.0;0.0;0.0;54619;54580.0;54666.0;0
54660;2.0;60.0;6.0;54655;;;0
54752;0.0;3.0;0.0;54747;54709.0;54795.0;0
54881;0.0;4.0;0.0;54876;54838.0;54924.0;0
54917;2.0;61.0;6.0;54912;;;0
54963;2.0;62.0;6.0;54963;;;0
55010;0.0;3.0;0.0;55005;54967.0;55053.0;0
55046;2.0;60.0;6.0;55041;;;0
55105;2.0;62.0;6.0;55100;;;0
55139;0.0;4.0;0.0;55134;55096.0;55182.0;0
55176;2.0;61.0;6.0;55171;;;0
55270;0.0;4.0;0.0;55265;55226.0;55313.0;0
55400;0.0;0.0;0.0;55395;55356.0;55443.0;0
55436;2.0;60.0;6.0;55431;;;0
55529;0.0;0.0;0.0;55524;55486.0;55573.0;0
55564;2.0;61.0;6.0;55559;;;0
55661;0.0;0.0;0.0;55656;55617.0;55703.0;0
55697;2.0;60.0;6.0;55692;;;0
55789;0.0;3.0;0.0;55784;55746.0;55832.0;0
55826;2.0;60.0;6.0;55821;;;0
55920;0.0;0.0;0.0;55915;55876.0;55964.0;0
56052;0.0;0.0;0.0;56047;56008.0;56094.0;0
56089;2.0;60.0;6.0;56084;;;0
56179;0.0;3.0;0.0;56174;56136.0;56223.0;0
56216;2.0;60.0;6.0;56211;;;0
56264;2.0;62.0;6.0;56261;;;0
56311;0.0;4.0;0.0;56306;56267.0;56354.0;0
56348;2.0;61.0;6.0;56343;;;0
56440;0.0;0.0;0.0;56435;56397.0;56483.0;0
56476;2.0;61.0;6.0;56471;;;0
56571;0.0;1.0;0.0;56566;56527.0;56615.0;0
56607;2.0;61.0;6.0;56602;;;0
56703;0.0;0.0;0.0;56698;56659.0;56745.0;0
56739;2.0;61.0;6.0;56734;;;0
56829;0.0;4.0;0.0;56824;56787.0;56872.0;0
56866;2.0;61.0;6.0;56861;;;0
56894;2.0;63.0;6.0;56894;;;0
56960;0.0;4.0;0.0;56955;56916.0;57004.0;0
56996;2.0;61.0;6.0;56991;;;0
57092;0.0;0.0;0.0;57087;57048.0;57134.0;0
57128;2.0;61.0;6.0;57123;;;0
57218;0.0;4.0;0.0;57213;57176.0;57261.0;0
57255;2.0;61.0;6.0;57250;;;0
57349;0.0;4.0;0.0;57344;57305.0;57392.0;0
57478;0.0;0.0;0.0;57473;57435.0;57521.0;0
57514;2.0;60.0;6.0;57509;;;0
57608;0.0;4.0;0.0;57604;57564.0;57652.0;0
57645;2.0;61.0;6.0;57640;;;0
57740;0.0;0.0;0.0;57735;57696.0;57782.0;0
57775;2.0;60.0;6.0;57770;;;0
57867;0.0;4.0;0.0;57862;57824.0;57909.0;0
57904;2.0;61.0;6.0;57899;;;0
57995;0.0;4.0;0.0;57990;57952.0;58039.0;0
58031;2.0;61.0;6.0;58026;;;0
58127;0.0;1.0;0.0;58122;58083.0;58169.0;0
58163;2.0;61.0;6.0;58158;;;0
58255;0.0;1.0;0.0;58250;58212.0;58298.0;0
58290;2.0;61.0;6.0;58285;;;0
58385;0.0;4.0;0.0;58380;58341.0;58428.0;0
58421;2.0;61.0;6.0;58416;;;0
58516;0.0;4.0;0.0;58512;58472.0;58559.0;0
58553;2.0;61.0;6.0;58548;;;0
58645;0.0;1.0;0.0;58640;58602.0;58688.0;0
58776;0.0;1.0;0.0;58771;58732.0;58818.0;0
58812;2.0;61.0;6.0;58807;;;0
58904;0.0;1.0;0.0;58899;58861.0;58947.0;0
58940;2.0;61.0;6.0;58935;;;0
59034;0.0;4.0;0.0;59029;58990.0;59076.0;0
59070;2.0;61.0;6.0;59065;;;0
59161;0.0;1.0;0.0;59156;59118.0;59203.0;0
59198;2.0;61.0;6.0;59193;;;0
59233;2.0;63.0;6.0;59233;;;0
59289;0.0;4.0;0.0;59285;59246.0;59332.0;0
59326;2.0;61.0;6.0;59321;;;0
59366;2.0;62.0;6.0;59366;;;0
59420;0.0;4.0;0.0;59415;59376.0;59463.0;0
59457;2.0;61.0;6.0;59452;;;0
59551;0.0;4.0;0.0;59547;59507.0;59595.0;0
59587;2.0;61.0;6.0;59582;;;0
59683;0.0;4.0;0.0;59678;59639.0;59726.0;0
59720;2.0;61.0;6.0;59715;;;0
59814;0.0;0.0;0.0;59809;59770.0;59857.0;0
59943;0.0;3.0;0.0;59938;59900.0;59984.0;0
60067;0.0;4.0;0.0;60062;60025.0;60110.0;0
60104;2.0;61.0;6.0;60099;;;0
60196;0.0;4.0;0.0;60191;60153.0;60237.0;0
60321;0.0;4.0;0.0;60316;60279.0;60364.0;0
60358;2.0;61.0;6.0;60353;;;0
60450;0.0;4.0;0.0;60445;60407.0;60492.0;0
60521;2.0;62.0;6.0;60520;;;0
60576;0.0;3.0;0.0;60572;60534.0;60617.0;0
60613;2.0;60.0;6.0;60608;;;0
60700;0.0;4.0;0.0;60695;60658.0;60741.0;0
60736;2.0;61.0;6.0;60731;;;0
60825;0.0;1.0;0.0;60820;60783.0;60867.0;0
60863;2.0;61.0;6.0;60858;;;0
60952;0.0;4.0;0.0;60948;60909.0;60993.0;0
60990;2.0;61.0;6.0;60985;;;0
61077;0.0;3.0;0.0;61072;61035.0;61119.0;0
61203;0.0;0.0;0.0;61198;61161.0;61244.0;0
61240;2.0;61.0;6.0;61235;;;0
61327;0.0;3.0;0.0;61322;61285.0;61368.0;0
61452;0.0;2.0;0.0;61452;61410.0;61493.0;0
61485;2.0;60.0;6.0;61480;;;0
61535;2.0;62.0;6.0;61532;;;0
61576;0.0;2.0;0.0;61576;61534.0;61614.0;0
61608;2.0;60.0;6.0;61603;;;0
61692;0.0;0.0;0.0;61687;61653.0;61732.0;0
61814;0.0;3.0;0.0;61810;61773.0;61854.0;0
61936;0.0;0.0;0.0;61931;61895.0;61976.0;0
61973;2.0;61.0;6.0;61968;;;0
62058;0.0;0.0;0.0;62053;62017.0;62097.0;0
62176;0.0;3.0;0.0;62171;62136.0;62216.0;0
62212;2.0;60.0;6.0;62207;;;0
62298;0.0;3.0;0.0;62293;62257.0;62339.0;0
62421;0.0;3.0;0.0;62416;62380.0;62461.0;0
62458;2.0;60.0;6.0;62453;;;0
62543;0.0;3.0;0.0;62538;62502.0;62584.0;0
62580;2.0;60.0;6.0;62575;;;0
62666;0.0;0.0;0.0;62661;62625.0;62707.0;0
62701;2.0;61.0;6.0;62696;;;0
62790;0.0;3.0;0.0;62786;62748.0;62830.0;0
62827;2.0;60.0;6.0;62822;;;0
62912;0.0;3.0;0.0;62907;62871.0;62953.0;0
62949;2.0;60.0;6.0;62944;;;0
63037;0.0;3.0;0.0;63033;62995.0;63077.0;0
63074;2.0;60.0;6.0;63069;;;0
63158;0.0;3.0;0.0;63153;63117.0;63200.0;0
63284;0.0;0.0;0.0;63279;63242.0;63325.0;0
63321;2.0;60.0;6.0;63316;;;0
63409;0.0;3.0;0.0;63404;63367.0;63450.0;0
63533;0.0;3.0;0.0;63528;63491.0;63575.0;0
63659;0.0;3.0;0.0;63654;63617.0;63700.0;0
63696;2.0;60.0;6.0;63691;;;0
63784;0.0;3.0;0.0;63779;63742.0;63826.0;0
63821;2.0;60.0;6.0;63816;;;0
63910;0.0;0.0;0.0;63905;63868.0;63952.0;0
63946;2.0;61.0;6.0;63941;;;0
64036;0.0;3.0;0.0;64031;63994.0;64077.0;0
64072;2.0;60.0;6.0;64067;;;0
64107;2.0;62.0;6.0;64107;;;0
64159;0.0;3.0;0.0;64154;64118.0;64201.0;0
64196;2.0;60.0;6.0;64191;;;0
64285;0.0;3.0;0.0;64280;64243.0;64326.0;0
64321;2.0;60.0;6.0;64316;;;0
64410;0.0;3.0;0.0;64405;64368.0;64451.0;0
64477;2.0;62.0;6.0;64477;;;0
64535;0.0;3.0;0.0;64530;64493.0;64577.0;0
64572;2.0;61.0;6.0;64567;;;0
64661;0.0;3.0;0.0;64656;64619.0;64701.0;0
64696;2.0;60.0;6.0;64691;;;0
64783;0.0;3.0;0.0;64778;64742.0;64824.0;0
64820;2.0;60.0;6.0;64815;;;0
64908;0.0;3.0;0.0;64903;64866.0;64949.0;0
64946;2.0;60.0;6.0;64941;;;0
65031;0.0;3.0;0.0;65026;64990.0;65072.0;0
65068;2.0;60.0;6.0;65063;;;0
65154;0.0;3.0;0.0;65150;65113.0;65196.0;0
65191;2.0;61.0;6.0;65186;;;0
65282;0.0;2.0;0.0;65282;65239.0;65322.0;0
65402;0.0;3.0;0.0;65397;65362.0;65443.0;0
65527;0.0;0.0;0.0;65522;65485.0;65568.0;0
65564;2.0;61.0;6.0;65559;;;0
65603;2.0;62.0;6.0;65603;;;0
65652;0.0;0.0;0.0;65647;65610.0;65692.0;0
65687;2.0;60.0;6.0;65682;;;0
65773;0.0;3.0;0.0;65768;65732.0;65814.0;0
65898;0.0;0.0;0.0;65893;65856.0;65939.0;0
65935;2.0;61.0;6.0;65930;;;0
66021;0.0;4.0;0.0;66016;65980.0;66063.0;0
66058;2.0;61.0;6.0;66053;;;0
66097;2.0;62.0;6.0;66097;;;0
66148;0.0;0.0;0.0;66143;66105.0;66189.0;0
66214;2.0;62.0;6.0;66214;;;0
66271;0.0;3.0;0.0;66266;66230.0;66312.0;0
66395;0.0;4.0;0.0;66391;66353.0;66437.0;0
66432;2.0;61.0;6.0;66427;;;0
66521;0.0;4.0;0.0;66516;66479.0;66562.0;0
66558;2.0;61.0;6.0;66553;;;0
66644;0.0;0.0;0.0;66639;66603.0;66684.0;0
66765;0.0;3.0;0.0;66761;66724.0;66806.0;0
66802;2.0;60.0;6.0;66797;;;0
66888;0.0;4.0;0.0;66883;66847.0;66928.0;0
66926;2.0;61.0;6.0;66921;;;0
67010;0.0;0.0;0.0;67005;66969.0;67049.0;0
67047;2.0;60.0;6.0;67042;;;0
67129;0.0;0.0;0.0;67124;67089.0;67169.0;0
67166;2.0;61.0;6.0;67161;;;0
67249;0.0;0.0;0.0;67244;67209.0;67289.0;0
67286;2.0;61.0;6.0;67281;;;0
67371;0.0;1.0;0.0;67366;67330.0;67411.0;0
67492;0.0;4.0;0.0;67488;67451.0;67532.0;0
67544;2.0;63.0;6.0;67544;;;0
67612;0.0;4.0;0.0;67607;67572.0;67653.0;0
67666;2.0;63.0;6.0;67664;;;0
67695;2.0;63.0;6.0;67695;;;0
67736;0.0;2.0;0.0;67735;67694.0;67775.0;0
67805;2.0;63.0;6.0;67801;;;0
67854;0.0;2.0;0.0;67854;67814.0;67893.0;0
67889;2.0;61.0;6.0;67884;;;0
67973;0.0;2.0;0.0;67973;67933.0;68011.0;0
68007;2.0;61.0;6.0;68002;;;0
68087;0.0;4.0;0.0;68082;68049.0;68126.0;0
68123;2.0;61.0;6.0;68118;;;0
68206;0.0;1.0;0.0;68202;68166.0;68245.0;0
68325;0.0;1.0;0.0;68320;68285.0;68365.0;0
68360;2.0;61.0;6.0;68355;;;0
68447;0.0;1.0;0.0;68442;68406.0;68487.0;0
68567;0.0;3.0;0.0;68562;68527.0;68608.0;0
68692;0.0;1.0;0.0;68687;68650.0;68733.0;0
68729;2.0;61.0;6.0;68724;;;0
68817;0.0;1.0;0.0;68812;68775.0;68857.0;0
68854;2.0;61.0;6.0;68849;;;0
68890;2.0;62.0;6.0;68890;;;0
68938;0.0;0.0;0.0;68933;68897.0;68979.0;0
68975;2.0;61.0;6.0;68970;;;0
69063;0.0;0.0;0.0;69058;69021.0;69103.0;0
69129;2.0;63.0;6.0;69129;;;0
69184;0.0;4.0;0.0;69179;69143.0;69226.0;0
69310;0.0;1.0;0.0;69305;69268.0;69351.0;0
69346;2.0;61.0;6.0;69341;;;0
69435;0.0;4.0;0.0;69431;69393.0;69476.0;0
69470;2.0;61.0;6.0;69465;;;0
69558;0.0;0.0;0.0;69553;69517.0;69600.0;0
69593;2.0;61.0;6.0;69588;;;0
69685;0.0;1.0;0.0;69680;69642.0;69727.0;0
69721;2.0;61.0;6.0;69716;;;0
69812;0.0;4.0;0.0;69807;69769.0;69854.0;0
69939;0.0;3.0;0.0;69934;69896.0;69980.0;0
69976;2.0;60.0;6.0;69971;;;0
70064;0.0;3.0;0.0;70059;70022.0;70107.0;0
70142;2.0;62.0;6.0;70139;;;0
70195;0.0;2.0;0.0;70195;70151.0;70234.0;0
70227;2.0;60.0;6.0;70222;;;0
70314;0.0;3.0;0.0;70309;70274.0;70356.0;0
70351;2.0;60.0;6.0;70346;;;0
70395;2.0;62.0;6.0;70391;;;0
70440;0.0;4.0;0.0;70435;70398.0;70481.0;0
70478;2.0;61.0;6.0;70473;;;0
70515;2.0;62.0;6.0;70511;;;0
70565;0.0;0.0;0.0;70560;70523.0;70605.0;0
70602;2.0;60.0;6.0;70597;;;0
70687;0.0;0.0;0.0;70682;70646.0;70728.0;0
70723;2.0;60.0;6.0;70718;;;0
70810;0.0;3.0;0.0;70805;70769.0;70851.0;0
70846;2.0;61.0;6.0;70841;;;0
70933;0.0;4.0;0.0;70928;70892.0;70974.0;0
71056;0.0;4.0;0.0;71052;71015.0;71097.0;0
71093;2.0;61.0;6.0;71088;;;0
71179;0.0;0.0;0.0;71174;71138.0;71219.0;0
71217;2.0;60.0;6.0;71212;;;0
71299;0.0;3.0;0.0;71295;71259.0;71339.0;0
71335;2.0;60.0;6.0;71330;;;0
71420;0.0;0.0;0.0;71415;71379.0;71461.0;0
71457;2.0;61.0;6.0;71452;;;0
71543;0.0;2.0;0.0;71543;71502.0;71583.0;0
71663;0.0;2.0;0.0;71663;71623.0;71701.0;0
71696;2.0;61.0;6.0;71691;;;0
71729;2.0;62.0;6.0;71729;;;0
71778;0.0;0.0;0.0;71773;71739.0;71817.0;0
71812;2.0;61.0;6.0;71807;;;0
71897;0.0;4.0;0.0;71892;71857.0;71936.0;0
71933;2.0;61.0;6.0;71928;;;0
72016;0.0;3.0;0.0;72011;71976.0;72057.0;0
72051;2.0;61.0;6.0;72046;;;0
72139;0.0;4.0;0.0;72134;72098.0;72179.0;0
72175;2.0;61.0;6.0;72170;;;0
72260;0.0;0.0;0.0;72255;72219.0;72301.0;0
72296;2.0;61.0;6.0;72291;;;0
72333;2.0;62.0;6.0;72333;;;0
72384;0.0;0.0;0.0;72380;72342.0;72425.0;0
72420;2.0;61.0;6.0;72415;;;0
72508;0.0;4.0;0.0;72503;72466.0;72549.0;0
72631;0.0;3.0;0.0;72626;72590.0;72672.0;0
72667;2.0;61.0;6.0;72662;;;0
72756;0.0;1.0;0.0;72752;72714.0;72797.0;0
72792;2.0;61.0;6.0;72787;;;0
72881;0.0;4.0;0.0;72876;72839.0;72922.0;0
73004;0.0;0.0;0.0;72999;72963.0;73045.0;0
73041;2.0;61.0;6.0;73036;;;0
73129;0.0;4.0;0.0;73124;73087.0;73170.0;0
73164;2.0;61.0;6.0;73159;;;0
73201;2.0;62.0;6.0;73197;;;0
73254;0.0;3.0;0.0;73250;73212.0;73295.0;0
73321;2.0;63.0;6.0;73320;;;0
73378;0.0;0.0;0.0;73373;73336.0;73419.0;0
73414;2.0;61.0;6.0;73409;;;0
73503;0.0;0.0;0.0;73498;73461.0;73543.0;0
73539;2.0;61.0;6.0;73534;;;0
73625;0.0;0.0;0.0;73621;73584.0;73666.0;0
73662;2.0;61.0;6.0;73657;;;0
73749;0.0;0.0;0.0;73744;73707.0;73789.0;0
73818;2.0;63.0;6.0;73815;;;0
73871;0.0;0.0;0.0;73866;73830.0;73911.0;0
73992;0.0;4.0;0.0;73987;73951.0;74033.0;0
74116;0.0;0.0;0.0;74111;74074.0;74156.0;0
74152;2.0;61.0;6.0;74147;;;0
74238;0.0;1.0;0.0;74233;74197.0;74279.0;0
74275;2.0;61.0;6.0;74270;;;0
74362;0.0;1.0;0.0;74357;74320.0;74404.0;0
74398;2.0;61.0;6.0;74393;;;0
74488;0.0;2.0;0.0;74488;74446.0;74527.0;0
74521;2.0;61.0;6.0;74516;;;0
74605;0.0;0.0;0.0;74600;74566.0;74646.0;0
74641;2.0;61.0;6.0;74636;;;0
74729;0.0;1.0;0.0;74724;74687.0;74770.0;0
74852;0.0;4.0;0.0;74848;74811.0;74892.0;0
74888;2.0;61.0;6.0;74883;;;0
74972;0.0;4.0;0.0;74967;74932.0;75014.0;0
75098;0.0;1.0;0.0;75093;75056.0;75139.0;0
75135;2.0;61.0;6.0;75130;;;0
75223;0.0;3.0;0.0;75218;75181.0;75263.0;0
75343;0.0;3.0;0.0;75339;75303.0;75384.0;0
75380;2.0;61.0;6.0;75375;;;0
75410;2.0;63.0;6.0;75407;;;0
75468;0.0;4.0;0.0;75463;75426.0;75510.0;0
75504;2.0;61.0;6.0;75499;;;0
75595;0.0;0.0;0.0;75591;75552.0;75635.0;0
75631;2.0;60.0;6.0;75626;;;0
75663;2.0;62.0;6.0;75660;;;0
75715;0.0;3.0;0.0;75710;75675.0;75756.0;0
75838;0.0;4.0;0.0;75833;75797.0;75880.0;0
75966;0.0;2.0;0.0;75965;75923.0;76005.0;0
76000;2.0;61.0;6.0;75995;;;0
76084;0.0;0.0;0.0;76079;76044.0;76124.0;0
76206;0.0;1.0;0.0;76201;76165.0;76248.0;0
76243;2.0;61.0;6.0;76238;;;0
76333;0.0;2.0;0.0;76333;76290.0;76372.0;0
76366;2.0;60.0;6.0;76361;;;0
76450;0.0;0.0;0.0;76445;76411.0;76491.0;0
76486;2.0;61.0;6.0;76481;;;0
76573;0.0;1.0;0.0;76568;76532.0;76613.0;0
76608;2.0;61.0;6.0;76603;;;0
76695;0.0;0.0;0.0;76691;76654.0;76736.0;0
76731;2.0;61.0;6.0;76726;;;0
76819;0.0;0.0;0.0;76814;76777.0;76860.0;0
76942;0.0;1.0;0.0;76937;76901.0;76983.0;0
76978;2.0;61.0;6.0;76973;;;0
77065;0.0;0.0;0.0;77060;77024.0;77105.0;0
77101;2.0;60.0;6.0;77096;;;0
77186;0.0;0.0;0.0;77181;77145.0;77227.0;0
77221;2.0;61.0;6.0;77216;;;0
77256;2.0;63.0;6.0;77256;;;0
77310;0.0;1.0;0.0;77305;77268.0;77352.0;0
77346;2.0;61.0;6.0;77341;;;0
77383;2.0;63.0;6.0;77383;;;0
77437;0.0;0.0;0.0;77432;77394.0;77478.0;0
77511;2.0;62.0;6.0;77510;;;0
77561;0.0;3.0;0.0;77556;77519.0;77602.0;0
77597;2.0;60.0;6.0;77592;;;0
77686;0.0;4.0;0.0;77681;77644.0;77728.0;0
77723;2.0;61.0;6.0;77718;;;0
77813;0.0;1.0;0.0;77809;77770.0;77853.0;0
77850;2.0;61.0;6.0;77845;;;0
77881;2.0;63.0;6.0;77878;;;0
77935;0.0;3.0;0.0;77930;77894.0;77976.0;0
77971;2.0;60.0;6.0;77966;;;0
78058;0.0;4.0;0.0;78053;78017.0;78098.0;0
78095;2.0;61.0;6.0;78090;;;0
78178;0.0;4.0;0.0;78173;78138.0;78218.0;0
78214;2.0;61.0;6.0;78209;;;0
78300;0.0;1.0;0.0;78295;78259.0;78340.0;0
78336;2.0;61.0;6.0;78331;;;0
78422;0.0;3.0;0.0;78417;78381.0;78461.0;0
78458;2.0;60.0;6.0;78453;;;0
78540;0.0;3.0;0.0;78536;78500.0;78581.0;0
78576;2.0;61.0;6.0;78571;;;0
78663;0.0;4.0;0.0;78658;78622.0;78701.0;0
78700;2.0;61.0;6.0;78695;;;0
78779;0.0;3.0;0.0;78775;78740.0;78820.0;0
78815;2.0;61.0;6.0;78810;;;0
78858;2.0;62.0;6.0;78858;;;0
78902;0.0;0.0;0.0;78897;78861.0;78941.0;0
78938;2.0;60.0;6.0;78933;;;0
79020;0.0;3.0;0.0;79015;78980.0;79061.0;0
79057;2.0;61.0;6.0;79052;;;0
79144;0.0;0.0;0.0;79139;79102.0;79184.0;0
79180;2.0;60.0;6.0;79175;;;0
79264;0.0;3.0;0.0;79259;79224.0;79303.0;0
79300;2.0;60.0;6.0;79295;;;0
79383;0.0;0.0;0.0;79378;79343.0;79424.0;0
79448;2.0;63.0;6.0;79443;;;0
79507;0.0;0.0;0.0;79502;79465.0;79547.0;0
79543;2.0;60.0;6.0;79538;;;0
79628;0.0;3.0;0.0;79624;79587.0;79670.0;0
79665;2.0;61.0;6.0;79660;;;0
79754;0.0;3.0;0.0;79749;79712.0;79794.0;0
79790;2.0;60.0;6.0;79785;;;0
79874;0.0;0.0;0.0;79869;79834.0;79915.0;0
79910;2.0;61.0;6.0;79905;;;0
79999;0.0;3.0;0.0;79994;79957.0;80038.0;0
80036;2.0;60.0;6.0;80031;;;0
80117;0.0;3.0;0.0;80112;80077.0;80158.0;0
80153;2.0;61.0;6.0;80148;;;0
80242;0.0;0.0;0.0;80237;80200.0;80284.0;0
80278;2.0;61.0;6.0;80273;;;0
80368;0.0;3.0;0.0;80363;80326.0;80407.0;0
80404;2.0;60.0;6.0;80399;;;0
80441;2.0;62.0;6.0;80441;;;0
80486;0.0;3.0;0.0;80481;80446.0;80528.0;0
80523;2.0;60.0;6.0;80518;;;0
80612;0.0;0.0;0.0;80607;80570.0;80651.0;0
80648;2.0;60.0;6.0;80643;;;0
80731;0.0;3.0;0.0;80727;80691.0;80772.0;0
80767;2.0;60.0;6.0;80762;;;0
80854;0.0;0.0;0.0;80849;80813.0;80895.0;0
80889;2.0;61.0;6.0;80884;;;0
80924;2.0;62.0;6.0;80924;;;0
80977;0.0;4.0;0.0;80972;80936.0;81019.0;0
81104;0.0;0.0;0.0;81099;81061.0;81143.0;0
81140;2.0;61.0;6.0;81135;;;0
81175;2.0;62.0;6.0;81171;;;0
81222;0.0;3.0;0.0;81217;81182.0;81263.0;0
81259;2.0;61.0;6.0;81254;;;0
81347;0.0;4.0;0.0;81343;81305.0;81390.0;0
81383;2.0;61.0;6.0;81378;;;0
81426;2.0;62.0;6.0;81424;;;0
81476;0.0;0.0;0.0;81471;81433.0;81515.0;0
81513;2.0;61.0;6.0;81508;;;0
81594;0.0;1.0;0.0;81589;81554.0;81635.0;0
81719;0.0;4.0;0.0;81714;81677.0;81759.0;0
81755;2.0;61.0;6.0;81750;;;0
81839;0.0;1.0;0.0;81834;81799.0;81879.0;0
81876;2.0;61.0;6.0;81871;;;0
81961;0.0;0.0;0.0;81956;81920.0;82002.0;0
81998;2.0;61.0;6.0;81993;;;0
82036;2.0;62.0;6.0;82034;;;0
82085;0.0;3.0;0.0;82080;82043.0;82123.0;0
82121;2.0;60.0;6.0;82116;;;0
82201;0.0;3.0;0.0;82196;82162.0;82241.0;0
82237;2.0;61.0;6.0;82232;;;0
82323;0.0;4.0;0.0;82318;82282.0;82363.0;0
82360;2.0;61.0;6.0;82355;;;0
82444;0.0;3.0;0.0;82439;82403.0;82482.0;0
82481;2.0;60.0;6.0;82476;;;0
82560;0.0;3.0;0.0;82555;82521.0;82601.0;0
82596;2.0;60.0;6.0;82591;;;0
82683;0.0;2.0;0.0;82683;82642.0;82721.0;0
82715;2.0;60.0;6.0;82710;;;0
82797;0.0;0.0;0.0;82792;82759.0;82836.0;0
82833;2.0;60.0;6.0;82828;;;0
82871;2.0;62.0;6.0;82867;;;0
82914;0.0;3.0;0.0;82909;82875.0;82953.0;0
82951;2.0;60.0;6.0;82946;;;0
83033;0.0;3.0;0.0;83029;82993.0;83072.0;0
83151;0.0;3.0;0.0;83146;83111.0;83189.0;0
83185;2.0;60.0;6.0;83180;;;0
83267;0.0;3.0;0.0;83262;83228.0;83307.0;0
83304;2.0;60.0;6.0;83299;;;0
83387;0.0;3.0;0.0;83382;83347.0;83424.0;0
83500;0.0;3.0;0.0;83495;83462.0;83539.0;0
83537;2.0;60.0;6.0;83532;;;0
83619;0.0;3.0;0.0;83614;83579.0;83658.0;0
83655;2.0;60.0;6.0;83650;;;0
83738;0.0;0.0;0.0;83733;83698.0;83777.0;0
83857;0.0;3.0;0.0;83852;83817.0;83896.0;0
83975;0.0;3.0;0.0;83970;83935.0;84012.0;0
84012;2.0;60.0;6.0;84007;;;0
84088;0.0;0.0;0.0;84083;84050.0;84127.0;0
84124;2.0;61.0;6.0;84119;;;0
84205;0.0;4.0;0.0;84200;84166.0;84243.0;0
84242;2.0;61.0;6.0;84237;;;0
84320;0.0;3.0;0.0;84315;84281.0;84357.0;0
84357;2.0;60.0;6.0;84352;;;0
84389;2.0;62.0;6.0;84389;;;0
84433;0.0;4.0;0.0;84428;84395.0;84472.0;0
84470;2.0;61.0;6.0;84465;;;0
84550;0.0;3.0;0.0;84545;84511.0;84588.0;0
84587;2.0;60.0;6.0;84582;;;0
84664;0.0;3.0;0.0;84659;84626.0;84703.0;0
84700;2.0;60.0;6.0;84695;;;0
84783;0.0;4.0;0.0;84778;84743.0;84822.0;0
84819;2.0;61.0;6.0;84814;;;0
84900;0.0;4.0;0.0;84895;84861.0;84940.0;0
84936;2.0;61.0;6.0;84931;;;0
85020;0.0;2.0;0.0;85020;84980.0;85057.0;0
85053;2.0;60.0;6.0;85048;;;0
85133;0.0;2.0;0.0;85132;85095.0;85171.0;0
85166;2.0;61.0;6.0;85161;;;0
85247;0.0;4.0;0.0;85243;85209.0;85286.0;0
85285;2.0;61.0;6.0;85280;;;0
85365;0.0;2.0;0.0;85365;85325.0;85402.0;0
85398;2.0;60.0;6.0;85393;;;0
85440;2.0;62.0;6.0;85438;;;0
85476;0.0;0.0;0.0;85471;85439.0;85516.0;0
85511;2.0;61.0;6.0;85506;;;0
85596;0.0;2.0;0.0;85595;85556.0;85632.0;0
85628;2.0;61.0;6.0;85623;;;0
85705;0.0;4.0;0.0;85700;85668.0;85744.0;0
85741;2.0;61.0;6.0;85736;;;0
85822;0.0;1.0;0.0;85817;85783.0;85861.0;0
85859;2.0;61.0;6.0;85854;;;0
85940;0.0;0.0;0.0;85935;85900.0;85977.0;0
86053;0.0;0.0;0.0;86049;86015.0;86093.0;0
86088;2.0;61.0;6.0;86083;;;0
86175;0.0;2.0;0.0;86175;86134.0;86211.0;0
86208;2.0;60.0;6.0;86203;;;0
86283;0.0;4.0;0.0;86278;86247.0;86323.0;0
86319;2.0;61.0;6.0;86314;;;0
86405;0.0;2.0;0.0;86405;86364.0;86441.0;0
86439;2.0;61.0;6.0;86434;;;0
86515;0.0;3.0;0.0;86510;86478.0;86555.0;0
86552;2.0;61.0;6.0;86547;;;0
86636;0.0;1.0;0.0;86632;86595.0;86675.0;0
86671;2.0;61.0;6.0;86666;;;0
86706;2.0;62.0;6.0;86706;;;0
86753;0.0;3.0;0.0;86748;86714.0;86793.0;0
86790;2.0;61.0;6.0;86785;;;0
86875;0.0;1.0;0.0;86870;86834.0;86914.0;0
86912;2.0;61.0;6.0;86907;;;0
86994;0.0;3.0;0.0;86990;86954.0;87033.0;0
87112;0.0;4.0;0.0;87108;87072.0;87152.0;0
87147;2.0;61.0;6.0;87142;;;0
87234;0.0;0.0;0.0;87229;87193.0;87272.0;0
87270;2.0;61.0;6.0;87265;;;0
87349;0.0;0.0;0.0;87344;87310.0;87387.0;0
87385;2.0;61.0;6.0;87380;;;0
87465;0.0;4.0;0.0;87460;87426.0;87503.0;0
87502;2.0;61.0;6.0;87497;;;0
87581;0.0;3.0;0.0;87576;87542.0;87619.0;0
87617;2.0;60.0;6.0;87612;;;0
87695;0.0;0.0;0.0;87690;87657.0;87733.0;0
87730;2.0;61.0;6.0;87725;;;0
87809;0.0;1.0;0.0;87804;87771.0;87847.0;0
87924;0.0;4.0;0.0;87919;87885.0;87963.0;0
87961;2.0;61.0;6.0;87956;;;0
88041;0.0;2.0;0.0;88041;88002.0;88076.0;0
88147;0.0;0.0;0.0;88142;88111.0;88186.0;0
88183;2.0;61.0;6.0;88178;;;0
88264;0.0;2.0;0.0;88264;88225.0;88300.0;0
88297;2.0;61.0;6.0;88292;;;0
88372;0.0;0.0;0.0;88367;88336.0;88410.0;0
88408;2.0;61.0;6.0;88403;;;0
88488;0.0;2.0;0.0;88488;88449.0;88527.0;0
88521;2.0;61.0;6.0;88516;;;0
88605;0.0;2.0;0.0;88605;88566.0;88641.0;0
88638;2.0;60.0;6.0;88633;;;0
88713;0.0;4.0;0.0;88708;88677.0;88752.0;0
88749;2.0;61.0;6.0;88744;;;0
88832;0.0;1.0;0.0;88827;88792.0;88870.0;0
88947;0.0;3.0;0.0;88942;88908.0;88986.0;0
88983;2.0;60.0;6.0;88978;;;0
89064;0.0;4.0;0.0;89059;89025.0;89105.0;0
89101;2.0;61.0;6.0;89096;;;0
89189;0.0;2.0;0.0;89189;89147.0;89226.0;0
89222;2.0;60.0;6.0;89217;;;0
89301;0.0;4.0;0.0;89296;89263.0;89342.0;0
89337;2.0;61.0;6.0;89332;;;0
89425;0.0;2.0;0.0;89425;89383.0;89462.0;0
89459;2.0;61.0;6.0;89454;;;0
89536;0.0;3.0;0.0;89532;89499.0;89575.0;0
89655;0.0;0.0;0.0;89650;89615.0;89693.0;0
89769;0.0;1.0;0.0;89764;89731.0;89807.0;0
89805;2.0;61.0;6.0;89800;;;0
89885;0.0;1.0;0.0;89880;89846.0;89924.0;0
89921;2.0;61.0;6.0;89916;;;0
90002;0.0;4.0;0.0;89997;89963.0;90040.0;0
90039;2.0;61.0;6.0;90034;;;0
90117;0.0;3.0;0.0;90112;90078.0;90156.0;0
90153;2.0;60.0;6.0;90148;;;0
90236;0.0;2.0;0.0;90236;90196.0;90271.0;0
90269;2.0;60.0;6.0;90264;;;0
90343;0.0;3.0;0.0;90338;90307.0;90381.0;0
90379;2.0;61.0;6.0;90374;;;0
90457;0.0;0.0;0.0;90452;90419.0;90493.0;0
90491;2.0;61.0;6.0;90486;;;0
90525;2.0;63.0;6.0;90520;;;0
90566;0.0;3.0;0.0;90561;90529.0;90604.0;0
90603;2.0;61.0;6.0;90598;;;0
90681;0.0;0.0;0.0;90676;90642.0;90720.0;0
90717;2.0;61.0;6.0;90712;;;0
90799;0.0;2.0;0.0;90799;90759.0;90836.0;0
90832;2.0;61.0;6.0;90827;;;0
90912;0.0;3.0;0.0;90907;90874.0;90950.0;0
91027;0.0;0.0;0.0;91022;90988.0;91067.0;0
91063;2.0;61.0;6.0;91058;;;0
91148;0.0;2.0;0.0;91148;91107.0;91183.0;0
91181;2.0;60.0;6.0;91176;;;0
91255;0.0;3.0;0.0;91250;91219.0;91293.0;0
91292;2.0;61.0;6.0;91287;;;0
91370;0.0;0.0;0.0;91365;91331.0;91408.0;0
91406;2.0;61.0;6.0;91401;;;0
91486;0.0;3.0;0.0;91481;91447.0;91523.0;0
91522;2.0;60.0;6.0;91517;;;0
91597;0.0;3.0;0.0;91592;91560.0;91635.0;0
91633;2.0;61.0;6.0;91628;;;0
91713;0.0;0.0;0.0;91708;91674.0;91751.0;0
91749;2.0;61.0;6.0;91744;;;0
91827;0.0;4.0;0.0;91822;91789.0;91865.0;0
91863;2.0;61.0;6.0;91858;;;0
91941;0.0;3.0;0.0;91936;91903.0;91979.0;0
91978;2.0;60.0;6.0;91973;;;0
92055;0.0;0.0;0.0;92050;92017.0;92093.0;0
92171;0.0;1.0;0.0;92166;92132.0;92209.0;0
92208;2.0;61.0;6.0;92203;;;0
92287;0.0;3.0;0.0;92282;92248.0;92324.0;0
92324;2.0;60.0;6.0;92319;;;0
92399;0.0;4.0;0.0;92394;92361.0;92437.0;0
92435;2.0;61.0;6.0;92430;;;0
92515;0.0;3.0;0.0;92510;92476.0;92551.0;0
92624;0.0;4.0;0.0;92619;92587.0;92664.0;0
92688;2.0;63.0;6.0;92688;;;0
92746;0.0;2.0;0.0;92746;92705.0;92782.0;0
92779;2.0;61.0;6.0;92774;;;0
92856;0.0;3.0;0.0;92851;92819.0;92896.0;0
92892;2.0;61.0;6.0;92887;;;0
92976;0.0;2.0;0.0;92976;92936.0;93013.0;0
93009;2.0;61.0;6.0;93004;;;0
93089;0.0;3.0;0.0;93085;93051.0;93126.0;0
93126;2.0;60.0;6.0;93121;;;0
93202;0.0;0.0;0.0;93198;93164.0;93240.0;0
93238;2.0;61.0;6.0;93233;;;0
93317;0.0;3.0;0.0;93312;93278.0;93355.0;0
93432;0.0;0.0;0.0;93427;93393.0;93471.0;0
93467;2.0;60.0;6.0;93462;;;0
93549;0.0;3.0;0.0;93544;93510.0;93589.0;0
93670;0.0;2.0;0.0;93670;93629.0;93706.0;0
93703;2.0;60.0;6.0;93698;;;0
93779;0.0;0.0;0.0;93774;93742.0;93817.0;0
93814;2.0;60.0;6.0;93809;;;0
93893;0.0;3.0;0.0;93888;93855.0;93932.0;0
93929;2.0;61.0;6.0;93924;;;0
94010;0.0;0.0;0.0;94005;93971.0;94048.0;0
94047;2.0;61.0;6.0;94042;;;0
94124;0.0;3.0;0.0;94120;94086.0;94161.0;0
94160;2.0;60.0;6.0;94155;;;0
94237;0.0;3.0;0.0;94233;94199.0;94274.0;0
94273;2.0;60.0;6.0;94268;;;0
94350;0.0;4.0;0.0;94346;94312.0;94389.0;0
94386;2.0;61.0;6.0;94381;;;0
94467;0.0;1.0;0.0;94462;94428.0;94505.0;0
94503;2.0;61.0;6.0;94498;;;0
94581;0.0;4.0;0.0;94576;94543.0;94620.0;0
94617;2.0;61.0;6.0;94612;;;0
94699;0.0;2.0;0.0;94699;94659.0;94735.0;0
94809;0.0;3.0;0.0;94805;94772.0;94846.0;0
94845;2.0;60.0;6.0;94840;;;0
94921;0.0;4.0;0.0;94916;94883.0;94960.0;0
94958;2.0;61.0;6.0;94953;;;0
95038;0.0;1.0;0.0;95033;94999.0;95078.0;0
95073;2.0;61.0;6.0;95068;;;0
95159;0.0;2.0;0.0;95159;95118.0;95195.0;0
95192;2.0;61.0;6.0;95187;;;0
95267;0.0;0.0;0.0;95262;95231.0;95306.0;0
95384;0.0;1.0;0.0;95379;95345.0;95423.0;0
95420;2.0;61.0;6.0;95415;;;0
95503;0.0;0.0;0.0;95498;95463.0;95540.0;0
95538;2.0;61.0;6.0;95533;;;0
95615;0.0;0.0;0.0;95610;95577.0;95655.0;0
95650;2.0;61.0;6.0;95645;;;0
95737;0.0;2.0;0.0;95737;95696.0;95775.0;0
95769;2.0;61.0;6.0;95764;;;0
95851;0.0;0.0;0.0;95846;95813.0;95890.0;0
95887;2.0;61.0;6.0;95882;;;0
95969;0.0;1.0;0.0;95964;95929.0;96008.0;0
96005;2.0;61.0;6.0;96000;;;0
96088;0.0;0.0;0.0;96083;96048.0;96125.0;0
96123;2.0;60.0;6.0;96118;;;0
96200;0.0;0.0;0.0;96195;96162.0;96239.0;0
96317;0.0;1.0;0.0;96312;96278.0;96355.0;0
96352;2.0;61.0;6.0;96347;;;0
96387;2.0;63.0;6.0;96387;;;0
96433;0.0;0.0;0.0;96428;96394.0;96471.0;0
96547;0.0;4.0;0.0;96543;96509.0;96585.0;0
96583;2.0;61.0;6.0;96578;;;0
96661;0.0;1.0;0.0;96656;96623.0;96699.0;0
96697;2.0;61.0;6.0;96692;;;0
96776;0.0;1.0;0.0;96772;96737.0;96815.0;0
96811;2.0;61.0;6.0;96806;;;0
96895;0.0;2.0;0.0;96895;96855.0;96931.0;0
96928;2.0;61.0;6.0;96923;;;0
96958;2.0;63.0;6.0;96958;;;0
97005;0.0;1.0;0.0;97000;96968.0;97042.0;0
97116;0.0;0.0;0.0;97112;97079.0;97154.0;0
97231;0.0;0.0;0.0;97226;97192.0;97269.0;0
97267;2.0;61.0;6.0;97262;;;0
97314;2.0;63.0;6.0;97314;;;0
97345;0.0;4.0;0.0;97341;97307.0;97383.0;0
97459;0.0;0.0;0.0;97454;97421.0;97497.0;0
97494;2.0;61.0;6.0;97489;;;0
97574;0.0;2.0;0.0;97574;97535.0;97610.0;0
97607;2.0;61.0;6.0;97602;;;0
97682;0.0;4.0;0.0;97677;97646.0;97722.0;0
97717;2.0;61.0;6.0;97712;;;0
97802;0.0;2.0;0.0;97802;97762.0;97838.0;0
97835;2.0;61.0;6.0;97830;;;0
97910;0.0;4.0;0.0;97906;97874.0;97949.0;0
97946;2.0;61.0;6.0;97941;;;0
98027;0.0;4.0;0.0;98022;97988.0;98068.0;0
98097;2.0;63.0;6.0;98094;;;0
98150;0.0;2.0;0.0;98150;98109.0;98187.0;0
98261;0.0;3.0;0.0;98256;98224.0;98299.0;0
98297;2.0;60.0;6.0;98292;;;0
98377;0.0;4.0;0.0;98373;98338.0;98415.0;0
98413;2.0;61.0;6.0;98408;;;0
98492;0.0;0.0;0.0;98488;98453.0;98530.0;0
98529;2.0;61.0;6.0;98524;;;0
98561;2.0;63.0;6.0;98558;;;0
98607;0.0;0.0;0.0;98603;98568.0;98647.0;0
98644;2.0;61.0;6.0;98639;;;0
98670;2.0;63.0;6.0;98670;;;0
98727;0.0;2.0;0.0;98727;98687.0;98763.0;0
98760;2.0;60.0;6.0;98755;;;0
98835;0.0;3.0;0.0;98830;98799.0;98873.0;0
98871;2.0;60.0;6.0;98866;;;0
98949;0.0;0.0;0.0;98944;98911.0;98987.0;0
99064;0.0;3.0;0.0;99059;99025.0;99101.0;0
99100;2.0;60.0;6.0;99095;;;0
99175;0.0;0.0;0.0;99170;99138.0;99214.0;0
99211;2.0;61.0;6.0;99206;;;0
99294;0.0;2.0;0.0;99294;99254.0;99331.0;0
99327;2.0;61.0;6.0;99322;;;0
99405;0.0;3.0;0.0;99400;99368.0;99442.0;0
99441;2.0;60.0;6.0;99436;;;0
99518;0.0;4.0;0.0;99513;99480.0;99558.0;0
99554;2.0;61.0;6.0;99549;;;0
99596;2.0;63.0;6.0;99594;;;0
99638;0.0;2.0;0.0;99638;99598.0;99675.0;0
99749;0.0;3.0;0.0;99744;99712.0;99787.0;0
99783;2.0;60.0;6.0;99778;;;0
99863;0.0;3.0;0.0;99858;99825.0;99901.0;0
99979;0.0;0.0;0.0;99974;99940.0;100017.0;0
100014;2.0;61.0;6.0;100009;;;0
100094;0.0;3.0;0.0;100089;100055.0;100130.0;0
100130;2.0;60.0;6.0;100125;;;0
100204;0.0;3.0;0.0;100199;100167.0;100242.0;0
100240;2.0;60.0;6.0;100235;;;0
100269;2.0;63.0;6.0;100269;;;0
100318;0.0;0.0;0.0;100313;100280.0;100357.0;0
100353;2.0;61.0;6.0;100348;;;0
100435;0.0;3.0;0.0;100430;100396.0;100472.0;0
100469;2.0;60.0;6.0;100464;;;0
100546;0.0;3.0;0.0;100542;100509.0;100584.0;0
100606;2.0;63.0;6.0;100602;;;0
100662;0.0;0.0;0.0;100657;100623.0;100699.0;0
100697;2.0;60.0;6.0;100692;;;0
100774;0.0;3.0;0.0;100769;100736.0;100813.0;0
100810;2.0;60.0;6.0;100805;;;0
100891;0.0;3.0;0.0;100886;100852.0;100931.0;0
100926;2.0;60.0;6.0;100921;;;0
101012;0.0;2.0;0.0;101012;100971.0;101048.0;0
101078;2.0;62.0;6.0;101078;;;0
101120;0.0;3.0;0.0;101115;101084.0;101160.0;0
101156;2.0;60.0;6.0;101151;;;0
101240;0.0;2.0;0.0;101240;101200.0;101279.0;0
101272;2.0;61.0;6.0;101267;;;0
101358;0.0;2.0;0.0;101358;101318.0;101393.0;0
101391;2.0;60.0;6.0;101386;;;0
101465;0.0;3.0;0.0;101461;101429.0;101504.0;0
101500;2.0;61.0;6.0;101495;;;0
101584;0.0;2.0;0.0;101584;101544.0;101620.0;0
101693;0.0;3.0;0.0;101688;101656.0;101730.0;0
101806;0.0;0.0;0.0;101801;101768.0;101844.0;0
101842;2.0;61.0;6.0;101837;;;0
101922;0.0;2.0;0.0;101922;101883.0;101957.0;0
101954;2.0;60.0;6.0;101949;;;0
102029;0.0;3.0;0.0;102025;101993.0;102066.0;0
102140;0.0;3.0;0.0;102136;102103.0;102178.0;0
102255;0.0;3.0;0.0;102251;102216.0;102292.0;0
102291;2.0;61.0;6.0;102286;;;0
102367;0.0;4.0;0.0;102363;102329.0;102406.0;0
102403;2.0;61.0;6.0;102398;;;0
102484;0.0;0.0;0.0;102479;102445.0;102523.0;0
102554;2.0;63.0;6.0;102552;;;0
102602;0.0;0.0;0.0;102598;102562.0;102640.0;0
102718;0.0;3.0;0.0;102713;102679.0;102756.0;0
102754;2.0;60.0;6.0;102749;;;0
102833;0.0;3.0;0.0;102828;102794.0;102873.0;0
102954;0.0;0.0;0.0;102949;102913.0;102993.0;0
102990;2.0;61.0;6.0;102985;;;0
103072;0.0;3.0;0.0;103067;103032.0;103109.0;0
103108;2.0;60.0;6.0;103103;;;0
103184;0.0;0.0;0.0;103179;103146.0;103223.0;0
103301;0.0;0.0;0.0;103296;103262.0;103340.0;0
103336;2.0;61.0;6.0;103331;;;0
103418;0.0;0.0;0.0;103413;103379.0;103455.0;0
103529;0.0;0.0;0.0;103524;103492.0;103567.0;0
103644;0.0;0.0;0.0;103639;103605.0;103682.0;0
103679;2.0;61.0;6.0;103674;;;0
103758;0.0;3.0;0.0;103753;103720.0;103793.0;0
103865;0.0;3.0;0.0;103860;103829.0;103903.0;0
103901;2.0;61.0;6.0;103896;;;0
103980;0.0;2.0;0.0;103980;103941.0;104016.0;0
104089;0.0;3.0;0.0;104084;104052.0;104125.0;0
104199;0.0;0.0;0.0;104194;104162.0;104238.0;0
104317;0.0;2.0;0.0;104317;104277.0;104352.0;0
104350;2.0;60.0;6.0;104345;;;0
104423;0.0;3.0;0.0;104418;104387.0;104461.0;0
104459;2.0;60.0;6.0;104454;;;0
104497;2.0;62.0;6.0;104497;;;0
104537;0.0;1.0;0.0;104532;104499.0;104574.0;0
104600;2.0;63.0;6.0;104600;;;0
104650;0.0;4.0;0.0;104646;104612.0;104688.0;0
104687;2.0;61.0;6.0;104682;;;0
104765;0.0;1.0;0.0;104760;104726.0;104804.0;0
104800;2.0;61.0;6.0;104795;;;0
104884;0.0;2.0;0.0;104884;104844.0;104919.0;0
104991;0.0;3.0;0.0;104987;104955.0;105028.0;0
105104;0.0;1.0;0.0;105099;105066.0;105142.0;0
105138;2.0;61.0;6.0;105133;;;0
105219;0.0;0.0;0.0;105214;105180.0;105255.0;0
105327;0.0;4.0;0.0;105323;105291.0;105366.0;0
105363;2.0;61.0;6.0;105358;;;0
105444;0.0;2.0;0.0;105444;105405.0;105480.0;0
105554;0.0;0.0;0.0;105550;105517.0;105590.0;0
105663;0.0;1.0;0.0;105658;105626.0;105702.0;0
105782;0.0;2.0;0.0;105782;105742.0;105819.0;0
105812;2.0;61.0;6.0;105807;;;0
105895;0.0;2.0;0.0;105895;105857.0;105931.0;0
106003;0.0;1.0;0.0;105998;105967.0;106042.0;0
106122;0.0;2.0;0.0;106122;106082.0;106158.0;0
106155;2.0;61.0;6.0;106150;;;0
106231;0.0;4.0;0.0;106227;106194.0;106269.0;0
106267;2.0;61.0;6.0;106262;;;0
106347;0.0;1.0;0.0;106342;106308.0;106387.0;0
106383;2.0;61.0;6.0;106378;;;0
106468;0.0;4.0;0.0;106463;106427.0;106506.0;0
106504;2.0;61.0;6.0;106499;;;0
106582;0.0;1.0;0.0;106577;106544.0;106623.0;0
106617;2.0;61.0;6.0;106612;;;0
106707;0.0;2.0;0.0;106707;106665.0;106745.0;0
106739;2.0;61.0;6.0;106734;;;0
106772;2.0;63.0;6.0;106769;;;0
106822;0.0;3.0;0.0;106817;106783.0;106862.0;0
106857;2.0;61.0;6.0;106852;;;0
106943;0.0;1.0;0.0;106938;106902.0;106984.0;0
106979;2.0;61.0;6.0;106974;;;0
107066;0.0;0.0;0.0;107061;107025.0;107103.0;0
107101;2.0;60.0;6.0;107096;;;0
107179;0.0;3.0;0.0;107174;107141.0;107220.0;0
107214;2.0;61.0;6.0;107209;;;0
107303;0.0;2.0;0.0;107303;107261.0;107342.0;0
107422;0.0;2.0;0.0;107422;107382.0;107460.0;0
107454;2.0;60.0;6.0;107449;;;0
107536;0.0;0.0;0.0;107531;107498.0;107576.0;0
107571;2.0;61.0;6.0;107566;;;0
107657;0.0;2.0;0.0;107657;107616.0;107696.0;0
107775;0.0;2.0;0.0;107775;107735.0;107812.0;0
107888;0.0;3.0;0.0;107884;107850.0;107928.0;0
107924;2.0;60.0;6.0;107919;;;0
108008;0.0;2.0;0.0;108008;107968.0;108044.0;0
108117;0.0;0.0;0.0;108112;108080.0;108156.0;0
108234;0.0;0.0;0.0;108229;108195.0;108275.0;0
108269;2.0;60.0;6.0;108264;;;0
108357;0.0;2.0;0.0;108357;108316.0;108393.0;0
108466;0.0;3.0;0.0;108461;108429.0;108507.0;0
108501;2.0;60.0;6.0;108496;;;0
108589;0.0;2.0;0.0;108589;108548.0;108625.0;0
108622;2.0;60.0;6.0;108617;;;0
108698;0.0;3.0;0.0;108694;108661.0;108737.0;0
108815;0.0;3.0;0.0;108810;108776.0;108854.0;0
108851;2.0;60.0;6.0;108846;;;0
108932;0.0;3.0;0.0;108927;108893.0;108969.0;0
108968;2.0;60.0;6.0;108963;;;0
109045;0.0;3.0;0.0;109041;109007.0;109086.0;0
109081;2.0;61.0;6.0;109076;;;0
109168;0.0;2.0;0.0;109168;109127.0;109205.0;0
109200;2.0;60.0;6.0;109195;;;0
109279;0.0;3.0;0.0;109274;109242.0;109317.0;0
109394;0.0;0.0;0.0;109389;109355.0;109433.0;0
109429;2.0;61.0;6.0;109424;;;0
109513;0.0;2.0;0.0;109513;109473.0;109548.0;0
109571;2.0;62.0;6.0;109569;;;0
109620;0.0;3.0;0.0;109616;109584.0;109659.0;0
109656;2.0;60.0;6.0;109651;;;0
109737;0.0;3.0;0.0;109732;109698.0;109775.0;0
109773;2.0;60.0;6.0;109768;;;0
109807;2.0;62.0;6.0;109803;;;0
109853;0.0;3.0;0.0;109848;109814.0;109890.0;0
109922;2.0;62.0;6.0;109918;;;0
109966;0.0;3.0;0.0;109961;109928.0;110005.0;0
110002;2.0;60.0;6.0;109997;;;0
110084;0.0;3.0;0.0;110079;110044.0;110121.0;0
110196;0.0;3.0;0.0;110192;110158.0;110234.0;0
110232;2.0;60.0;6.0;110227;;;0
110311;0.0;0.0;0.0;110306;110272.0;110350.0;0
110346;2.0;61.0;6.0;110341;;;0
110430;0.0;3.0;0.0;110425;110390.0;110467.0;0
110465;2.0;60.0;6.0;110460;;;0
110541;0.0;3.0;0.0;110536;110504.0;110581.0;0
110578;2.0;61.0;6.0;110573;;;0
110661;0.0;2.0;0.0;110661;110621.0;110698.0;0
110693;2.0;61.0;6.0;110688;;;0
110774;0.0;3.0;0.0;110769;110736.0;110812.0;0
110888;0.0;3.0;0.0;110883;110850.0;110929.0;0
110924;2.0;61.0;6.0;110919;;;0
111011;0.0;2.0;0.0;111011;110970.0;111047.0;0
111120;0.0;3.0;0.0;111115;111083.0;111161.0;0
111156;2.0;61.0;6.0;111151;;;0
111243;0.0;2.0;0.0;111243;111202.0;111282.0;0
111276;2.0;61.0;6.0;111271;;;0
111360;0.0;3.0;0.0;111355;111321.0;111397.0;0
111472;0.0;3.0;0.0;111468;111434.0;111511.0;0
111508;2.0;61.0;6.0;111503;;;0
111590;0.0;0.0;0.0;111585;111550.0;111628.0;0
111625;2.0;61.0;6.0;111620;;;0
111705;0.0;3.0;0.0;111700;111666.0;111742.0;0
111740;2.0;60.0;6.0;111735;;;0
111792;2.0;62.0;6.0;111792;;;0
111818;0.0;0.0;0.0;111813;111780.0;111856.0;0
111853;2.0;61.0;6.0;111848;;;0
111933;0.0;3.0;0.0;111928;111894.0;111970.0;0
111969;2.0;60.0;6.0;111964;;;0
112044;0.0;3.0;0.0;112039;112007.0;112082.0;0
112080;2.0;60.0;6.0;112075;;;0
112159;0.0;3.0;0.0;112154;112120.0;112198.0;0
112194;2.0;61.0;6.0;112189;;;0
112276;0.0;4.0;0.0;112272;112237.0;112315.0;0
112312;2.0;61.0;6.0;112307;;;0
112394;0.0;3.0;0.0;112389;112354.0;112431.0;0
112506;0.0;0.0;0.0;112501;112468.0;112544.0;0
112541;2.0;61.0;6.0;112536;;;0
112622;0.0;1.0;0.0;112617;112583.0;112661.0;0
112658;2.0;61.0;6.0;112653;;;0
112698;2.0;63.0;6.0;112698;;;0
112739;0.0;0.0;0.0;112734;112700.0;112777.0;0
112775;2.0;61.0;6.0;112770;;;0
112853;0.0;4.0;0.0;112848;112815.0;112892.0;0
112889;2.0;61.0;6.0;112884;;;0
112970;0.0;4.0;0.0;112966;112931.0;113009.0;0
113005;2.0;61.0;6.0;113000;;;0
113087;0.0;0.0;0.0;113082;113048.0;113126.0;0
113204;0.0;3.0;0.0;113200;113165.0;113241.0;0
113238;2.0;60.0;6.0;113233;;;0
113315;0.0;4.0;0.0;113311;113278.0;113354.0;0
113432;0.0;0.0;0.0;113427;113393.0;113469.0;0
113467;2.0;61.0;6.0;113462;;;0
113545;0.0;4.0;0.0;113540;113507.0;113583.0;0
113579;2.0;61.0;6.0;113574;;;0
113659;0.0;1.0;0.0;113654;113621.0;113697.0;0
113775;0.0;1.0;0.0;113770;113736.0;113814.0;0
113811;2.0;61.0;6.0;113806;;;0
113894;0.0;2.0;0.0;113894;113854.0;113930.0;0
113927;2.0;60.0;6.0;113922;;;0
114002;0.0;0.0;0.0;113997;113966.0;114041.0;0
114038;2.0;61.0;6.0;114033;;;0
114121;0.0;2.0;0.0;114121;114081.0;114158.0;0
114153;2.0;61.0;6.0;114148;;;0
114232;0.0;0.0;0.0;114227;114195.0;114270.0;0
114348;0.0;0.0;0.0;114343;114309.0;114387.0;0
114384;2.0;61.0;6.0;114379;;;0
114466;0.0;4.0;0.0;114461;114426.0;114506.0;0
114502;2.0;61.0;6.0;114497;;;0
114587;0.0;3.0;0.0;114583;114546.0;114624.0;0
114623;2.0;60.0;6.0;114618;;;0
114700;0.0;4.0;0.0;114695;114662.0;114740.0;0
114736;2.0;61.0;6.0;114731;;;0
114820;0.0;4.0;0.0;114815;114780.0;114858.0;0
114857;2.0;61.0;6.0;114852;;;0
114934;0.0;0.0;0.0;114929;114896.0;114973.0;0
114968;2.0;61.0;6.0;114963;;;0
115052;0.0;4.0;0.0;115047;115012.0;115092.0;0
115088;2.0;61.0;6.0;115083;;;0
115124;2.0;62.0;6.0;115121;;;0
115174;0.0;2.0;0.0;115174;115133.0;115211.0;0
115206;2.0;61.0;6.0;115201;;;0
115237;2.0;63.0;6.0;115232;;;0
115286;0.0;0.0;0.0;115281;115248.0;115325.0;0
115403;0.0;0.0;0.0;115398;115364.0;115440.0;0
115438;2.0;61.0;6.0;115433;;;0
115514;0.0;0.0;0.0;115509;115477.0;115552.0;0
115550;2.0;61.0;6.0;115545;;;0
115628;0.0;1.0;0.0;115623;115590.0;115666.0;0
115689;2.0;63.0;6.0;115689;;;0
115744;0.0;0.0;0.0;115740;115705.0;115780.0;0
115779;2.0;60.0;6.0;115774;;;0
115854;0.0;3.0;0.0;115849;115817.0;115891.0;0
115889;2.0;61.0;6.0;115884;;;0
115967;0.0;4.0;0.0;115962;115929.0;116007.0;0
116003;2.0;61.0;6.0;115998;;;0
116087;0.0;2.0;0.0;116087;116047.0;116122.0;0
116120;2.0;61.0;6.0;116115;;;0
116194;0.0;3.0;0.0;116190;116158.0;116233.0;0
116229;2.0;61.0;6.0;116224;;;0
116313;0.0;2.0;0.0;116313;116273.0;116349.0;0
116422;0.0;3.0;0.0;116418;116385.0;116460.0;0
116458;2.0;60.0;6.0;116453;;;0
116536;0.0;0.0;0.0;116531;116498.0;116575.0;0
116572;2.0;61.0;6.0;116567;;;0
116654;0.0;0.0;0.0;116649;116614.0;116691.0;0
116690;2.0;60.0;6.0;116685;;;0
116767;0.0;2.0;0.0;116767;116729.0;116804.0;0
116798;2.0;61.0;6.0;116793;;;0
116879;0.0;4.0;0.0;116874;116841.0;116916.0;0
116915;2.0;61.0;6.0;116910;;;0
116992;0.0;3.0;0.0;116988;116954.0;117029.0;0
117104;0.0;1.0;0.0;117099;117066.0;117143.0;0
117140;2.0;61.0;6.0;117135;;;0
117222;0.0;0.0;0.0;117217;117182.0;117259.0;0
117333;0.0;3.0;0.0;117328;117296.0;117370.0;0
117395;2.0;63.0;6.0;117393;;;0
117446;0.0;1.0;0.0;117442;117408.0;117485.0;0
117481;2.0;61.0;6.0;117476;;;0
117563;0.0;2.0;0.0;117563;117524.0;117598.0;0
117596;2.0;60.0;6.0;117591;;;0
117668;0.0;4.0;0.0;117663;117633.0;117707.0;0
117704;2.0;61.0;6.0;117699;;;0
117787;0.0;2.0;0.0;117787;117747.0;117824.0;0
117898;0.0;3.0;0.0;117893;117861.0;117935.0;0
117934;2.0;60.0;6.0;117929;;;0
118011;0.0;0.0;0.0;118007;117973.0;118050.0;0
118046;2.0;61.0;6.0;118041;;;0
118081;2.0;63.0;6.0;118081;;;0
118128;0.0;2.0;0.0;118128;118089.0;118163.0;1
118193;2.0;62.0;6.0;118193;;;0
118234;0.0;3.0;0.0;118229;118198.0;118272.0;0
118270;2.0;61.0;6.0;118265;;;0
118348;0.0;1.0;0.0;118343;118310.0;118387.0;0
118383;2.0;61.0;6.0;118378;;;0
118465;0.0;2.0;0.0;118465;118426.0;118500.0;0
118497;2.0;61.0;6.0;118492;;;0
118572;0.0;0.0;0.0;118567;118536.0;118609.0;0
118607;2.0;61.0;6.0;118602;;;0
118685;0.0;0.0;0.0;118680;118647.0;118723.0;0
118800;0.0;0.0;0.0;118795;118761.0;118838.0;0
118835;2.0;61.0;6.0;118830;;;0
118915;0.0;0.0;0.0;118910;118876.0;118952.0;0
118950;2.0;61.0;6.0;118945;;;0
119028;0.0;0.0;0.0;119023;118990.0;119065.0;0
119141;0.0;3.0;0.0;119136;119103.0;119177.0;0
119178;2.0;60.0;6.0;119173;;;0
119251;0.0;0.0;0.0;119246;119214.0;119288.0;0
119286;2.0;61.0;6.0;119281;;;0
119363;0.0;1.0;0.0;119358;119325.0;119401.0;0
119400;2.0;61.0;6.0;119395;;;0
119477;0.0;0.0;0.0;119472;119439.0;119513.0;0
119585;0.0;4.0;0.0;119580;119549.0;119624.0;0
119621;2.0;61.0;6.0;119616;;;0
119661;2.0;62.0;6.0;119661;;;0
119703;0.0;2.0;0.0;119703;119663.0;119738.0;0
119736;2.0;60.0;6.0;119731;;;0
119809;0.0;0.0;0.0;119804;119773.0;119847.0;0
119899;2.0;62.0;6.0;119899;;;0
119923;0.0;0.0;0.0;119918;119885.0;119960.0;0
119958;2.0;60.0;6.0;119953;;;0
120035;0.0;3.0;0.0;120030;119997.0;120072.0;0
120069;2.0;60.0;6.0;120064;;;0
120147;0.0;0.0;0.0;120142;120109.0;120185.0;0
120263;0.0;3.0;0.0;120258;120224.0;120300.0;0
120299;2.0;60.0;6.0;120294;;;0
120374;0.0;3.0;0.0;120369;120337.0;120412.0;0
120409;2.0;61.0;6.0;120404;;;0
120489;0.0;4.0;0.0;120485;120450.0;120529.0;0
120609;0.0;2.0;0.0;120609;120569.0;120644.0;0
120642;2.0;61.0;6.0;120637;;;0
120716;0.0;0.0;0.0;120711;120680.0;120754.0;0
120751;2.0;61.0;6.0;120746;;;0
120830;0.0;3.0;0.0;120825;120792.0;120868.0;0
120864;2.0;61.0;6.0;120859;;;0
120946;0.0;4.0;0.0;120941;120907.0;120983.0;0
120981;2.0;61.0;6.0;120976;;;0
121059;0.0;3.0;0.0;121054;121021.0;121095.0;0
121095;2.0;60.0;6.0;121090;;;0
121169;0.0;4.0;0.0;121164;121132.0;121207.0;0
121205;2.0;61.0;6.0;121200;;;0
121236;2.0;63.0;6.0;121231;;;0
121285;0.0;4.0;0.0;121280;121246.0;121320.0;0
121321;2.0;61.0;6.0;121316;;;0
121392;0.0;4.0;0.0;121387;121356.0;121429.0;0
121503;0.0;0.0;0.0;121499;121466.0;121541.0;0
121618;0.0;0.0;0.0;121613;121579.0;121657.0;0
121653;2.0;61.0;6.0;121648;;;0
121735;0.0;4.0;0.0;121730;121696.0;121774.0;0
121770;2.0;61.0;6.0;121765;;;0
121853;0.0;1.0;0.0;121848;121813.0;121891.0;0
121969;0.0;3.0;0.0;121965;121930.0;122008.0;0
122004;2.0;61.0;6.0;121999;;;0
122088;0.0;0.0;0.0;122083;122048.0;122127.0;0
122122;2.0;61.0;6.0;122117;;;0
122206;0.0;1.0;0.0;122201;122166.0;122245.0;0
122324;0.0;4.0;0.0;122319;122284.0;122362.0;0
122359;2.0;61.0;6.0;122354;;;0
122440;0.0;3.0;0.0;122435;122401.0;122480.0;0
122475;2.0;61.0;6.0;122470;;;0
122560;0.0;1.0;0.0;122555;122520.0;122601.0;0
122595;2.0;61.0;6.0;122590;;;0
122685;0.0;4.0;0.0;122680;122643.0;122724.0;0
122720;2.0;61.0;6.0;122715;;;0
122803;0.0;1.0;0.0;122798;122763.0;122844.0;0
122839;2.0;61.0;6.0;122834;;;0
122928;0.0;1.0;0.0;122923;122886.0;122969.0;0
122962;2.0;61.0;6.0;122957;;;0
122997;2.0;63.0;6.0;122997;;;0
123051;0.0;1.0;0.0;123046;123010.0;123091.0;0
123171;0.0;4.0;0.0;123166;123131.0;123210.0;0
123235;2.0;63.0;6.0;123235;;;0
123289;0.0;4.0;0.0;123284;123249.0;123329.0;0
123325;2.0;61.0;6.0;123320;;;0
123410;0.0;1.0;0.0;123405;123369.0;123449.0;0
123446;2.0;61.0;6.0;123441;;;0
123529;0.0;4.0;0.0;123524;123489.0;123569.0;0
123565;2.0;60.0;6.0;123560;;;0
123650;0.0;3.0;0.0;123646;123609.0;123693.0;0
123685;2.0;60.0;6.0;123680;;;0
123781;0.0;4.0;0.0;123777;123737.0;123824.0;0
123816;2.0;61.0;6.0;123811;;;0
123910;0.0;0.0;0.0;123905;123867.0;123950.0;0
124032;0.0;0.0;0.0;124027;123991.0;124074.0;0
124111;2.0;63.0;6.0;124110;;;0
124158;0.0;1.0;0.0;124153;124116.0;124199.0;0
124192;2.0;61.0;6.0;124187;;;0
124281;0.0;0.0;0.0;124276;124240.0;124322.0;0
124317;2.0;60.0;6.0;124312;;;0
124406;0.0;3.0;0.0;124402;124364.0;124447.0;0
124531;0.0;0.0;0.0;124526;124489.0;124571.0;0
124567;2.0;60.0;6.0;124562;;;0
124652;0.0;3.0;0.0;124647;124611.0;124693.0;0
124687;2.0;60.0;6.0;124682;;;0
124775;0.0;3.0;0.0;124770;124734.0;124816.0;0
124811;2.0;60.0;6.0;124806;;;0
124899;0.0;3.0;0.0;124894;124857.0;124939.0;0
125021;0.0;0.0;0.0;125016;124980.0;125062.0;0
125146;0.0;4.0;0.0;125141;125104.0;125188.0;0
125182;2.0;61.0;6.0;125177;;;0
125273;0.0;4.0;0.0;125268;125230.0;125315.0;0
125309;2.0;61.0;6.0;125304;;;0
125335;2.0;63.0;6.0;125333;;;0
125401;0.0;3.0;0.0;125396;125358.0;125443.0;0
125436;2.0;60.0;6.0;125431;;;0
125528;0.0;4.0;0.0;125523;125485.0;125571.0;0
125600;2.0;62.0;6.0;125600;;;0
125657;0.0;0.0;0.0;125652;125614.0;125699.0;0
125692;2.0;60.0;6.0;125687;;;0
125785;0.0;3.0;0.0;125780;125742.0;125825.0;0
125821;2.0;60.0;6.0;125816;;;0
125859;2.0;62.0;6.0;125859;;;0
125907;0.0;3.0;0.0;125902;125866.0;125949.0;0
125942;2.0;60.0;6.0;125937;;;0
125980;2.0;62.0;6.0;125980;;;0
126033;0.0;4.0;0.0;126028;125991.0;126075.0;0
126160;0.0;3.0;0.0;126155;126117.0;126203.0;0
126203;2.0;60.0;6.0;126203;;;0
126290;0.0;2.0;0.0;126290;126246.0;126331.0;0
126363;2.0;62.0;6.0;126363;;;0
126413;0.0;3.0;0.0;126408;126372.0;126454.0;0
126536;0.0;0.0;0.0;126531;126495.0;126577.0;0
126592;2.0;63.0;6.0;126589;;;0
126661;0.0;4.0;0.0;126657;126619.0;126703.0;0
126789;0.0;3.0;0.0;126784;126746.0;126829.0;0
126859;2.0;62.0;6.0;126854;;;0
126911;0.0;3.0;0.0;126906;126870.0;126953.0;0
127037;0.0;0.0;0.0;127032;126995.0;127080.0;0
127167;0.0;2.0;0.0;127167;127123.0;127206.0;0
127199;2.0;60.0;6.0;127194;;;0
127285;0.0;3.0;0.0;127280;127245.0;127327.0;0
127320;2.0;60.0;6.0;127315;;;0
127411;0.0;0.0;0.0;127406;127369.0;127453.0;0
127447;2.0;60.0;6.0;127442;;;0
127537;0.0;3.0;0.0;127532;127495.0;127579.0;0
127572;2.0;60.0;6.0;127567;;;0
127665;0.0;0.0;0.0;127660;127622.0;127707.0;0
127701;2.0;60.0;6.0;127696;;;0
127792;0.0;3.0;0.0;127788;127749.0;127834.0;0
127827;2.0;60.0;6.0;127822;;;0
127920;0.0;3.0;0.0;127915;127877.0;127963.0;0
127955;2.0;60.0;6.0;127950;;;0
128002;2.0;62.0;6.0;128000;;;0
128049;0.0;0.0;0.0;128044;128006.0;128091.0;0
128084;2.0;60.0;6.0;128079;;;0
128176;0.0;3.0;0.0;128171;128133.0;128217.0;0
128301;0.0;3.0;0.0;128296;128259.0;128343.0;0
128337;2.0;60.0;6.0;128332;;;0
128428;0.0;0.0;0.0;128423;128385.0;128470.0;0
128464;2.0;61.0;6.0;128459;;;0
128556;0.0;3.0;0.0;128551;128513.0;128597.0;0
128590;2.0;60.0;6.0;128585;;;0
128680;0.0;3.0;0.0;128675;128638.0;128722.0;0
128716;2.0;61.0;6.0;128711;;;0
128808;0.0;3.0;0.0;128803;128765.0;128849.0;0
128844;2.0;60.0;6.0;128839;;;0
128932;0.0;0.0;0.0;128927;128890.0;128974.0;0
128966;2.0;61.0;6.0;128961;;;0
129060;0.0;4.0;0.0;129055;129017.0;129103.0;0
129136;2.0;62.0;6.0;129136;;;0
129190;0.0;0.0;0.0;129185;129146.0;129233.0;0
129226;2.0;60.0;6.0;129221;;;0
129319;0.0;3.0;0.0;129314;129276.0;129360.0;0
129354;2.0;60.0;6.0;129349;;;0
129444;0.0;3.0;0.0;129439;129402.0;129486.0;0
129571;0.0;1.0;0.0;129566;129528.0;129614.0;0
129607;2.0;61.0;6.0;129602;;;0
129700;0.0;1.0;0.0;129695;129657.0;129743.0;0
129736;2.0;61.0;6.0;129731;;;0
129830;0.0;0.0;0.0;129825;129786.0;129872.0;0
129866;2.0;61.0;6.0;129861;;;0
129958;0.0;0.0;0.0;129953;129915.0;129999.0;0
130083;0.0;3.0;0.0;130078;130041.0;130125.0;0
130119;2.0;60.0;6.0;130114;;;0
130211;0.0;1.0;0.0;130206;130168.0;130254.0;0
130246;2.0;61.0;6.0;130241;;;0
130284;2.0;63.0;6.0;130281;;;0
130340;0.0;1.0;0.0;130335;130297.0;130382.0;0
130414;2.0;63.0;6.0;130412;;;0
130467;0.0;4.0;0.0;130464;130424.0;130509.0;0
130541;2.0;62.0;6.0;130541;;;0
130594;0.0;0.0;0.0;130589;130551.0;130637.0;0
130630;2.0;61.0;6.0;130625;;;0
130675;2.0;62.0;6.0;130672;;;0
130723;0.0;1.0;0.0;130718;130680.0;130765.0;0
130759;2.0;61.0;6.0;130754;;;0
130851;0.0;0.0;0.0;130846;130808.0;130893.0;0
130886;2.0;61.0;6.0;130881;;;0
130977;0.0;0.0;0.0;130972;130935.0;131020.0;0
131013;2.0;61.0;6.0;131008;;;0
131107;0.0;1.0;0.0;131102;131063.0;131148.0;0
131143;2.0;61.0;6.0;131138;;;0
131232;0.0;3.0;0.0;131227;131190.0;131275.0;0
131268;2.0;60.0;6.0;131263;;;0
131362;0.0;4.0;0.0;131358;131318.0;131405.0;0
131398;2.0;61.0;6.0;131393;;;0
131428;2.0;63.0;6.0;131428;;;0
131492;0.0;3.0;0.0;131487;131448.0;131534.0;0
131527;2.0;60.0;6.0;131522;;;0
131619;0.0;0.0;0.0;131614;131576.0;131662.0;0
131653;2.0;60.0;6.0;131648;;;0
131748;0.0;4.0;0.0;131743;131705.0;131791.0;0
131784;2.0;61.0;6.0;131779;;;0
131879;0.0;0.0;0.0;131874;131835.0;131922.0;0
131914;2.0;61.0;6.0;131909;;;0
131952;2.0;62.0;6.0;131952;;;0
132008;0.0;4.0;0.0;132003;131965.0;132051.0;0
132045;2.0;61.0;6.0;132040;;;0
132084;2.0;62.0;6.0;132080;;;0
132137;0.0;0.0;0.0;132132;132094.0;132179.0;0
132263;0.0;3.0;0.0;132258;132221.0;132305.0;0
132298;2.0;60.0;6.0;132293;;;0
132391;0.0;4.0;0.0;132386;132348.0;132434.0;0
132472;2.0;62.0;6.0;132469;;;0
132520;0.0;0.0;0.0;132515;132477.0;132562.0;0
132555;2.0;60.0;6.0;132550;;;0
132648;0.0;1.0;0.0;132643;132605.0;132691.0;0
132684;2.0;61.0;6.0;132679;;;0
132777;0.0;4.0;0.0;132773;132734.0;132819.0;0
132903;0.0;4.0;0.0;132898;132861.0;132946.0;0
132938;2.0;61.0;6.0;132933;;;0
133033;0.0;1.0;0.0;133028;132989.0;133076.0;0
133070;2.0;61.0;6.0;133065;;;0
133163;0.0;3.0;0.0;133158;133119.0;133205.0;0
133200;2.0;60.0;6.0;133195;;;0
133291;0.0;1.0;0.0;133286;133248.0;133333.0;0
133325;2.0;61.0;6.0;133320;;;0
133419;0.0;3.0;0.0;133414;133376.0;133462.0;0
133455;2.0;60.0;6.0;133450;;;0
133548;0.0;3.0;0.0;133543;133505.0;133591.0;0
133584;2.0;60.0;6.0;133579;;;0
133679;0.0;0.0;0.0;133674;133635.0;133722.0;0
133810;0.0;0.0;0.0;133805;133766.0;133853.0;0
133939;0.0;4.0;0.0;133935;133896.0;133982.0;0
133975;2.0;61.0;6.0;133970;;;0
134069;0.0;3.0;0.0;134064;134025.0;134110.0;0
134105;2.0;60.0;6.0;134100;;;0
134194;0.0;3.0;0.0;134189;134152.0;134237.0;0
134230;2.0;61.0;6.0;134225;;;0
134323;0.0;0.0;0.0;134318;134280.0;134364.0;0
134358;2.0;60.0;6.0;134353;;;0
134448;0.0;3.0;0.0;134444;134406.0;134491.0;0
134577;0.0;4.0;0.0;134572;134534.0;134619.0;0
134613;2.0;61.0;6.0;134608;;;0
134705;0.0;3.0;0.0;134700;134662.0;134748.0;0
134741;2.0;60.0;6.0;134736;;;0
134778;2.0;62.0;6.0;134778;;;0
134834;0.0;4.0;0.0;134829;134791.0;134877.0;0
134965;0.0;0.0;0.0;134960;134921.0;135007.0;0
135091;0.0;3.0;0.0;135087;135049.0;135134.0;0
135127;2.0;61.0;6.0;135122;;;0
135222;0.0;1.0;0.0;135217;135178.0;135265.0;0
135258;2.0;61.0;6.0;135253;;;0
135306;2.0;62.0;6.0;135303;;;0
135351;0.0;0.0;0.0;135346;135308.0;135394.0;0
135385;2.0;60.0;6.0;135380;;;0
135481;0.0;0.0;0.0;135476;135437.0;135524.0;0
135612;0.0;4.0;0.0;135607;135568.0;135655.0;0
135742;0.0;3.0;0.0;135738;135698.0;135784.0;0
135779;2.0;60.0;6.0;135774;;;0
135868;0.0;3.0;0.0;135863;135826.0;135911.0;0
135905;2.0;60.0;6.0;135900;;;0
135998;0.0;4.0;0.0;135993;135954.0;136041.0;0
136034;2.0;61.0;6.0;136029;;;0
136127;0.0;3.0;0.0;136122;136084.0;136170.0;0
136257;0.0;1.0;0.0;136252;136213.0;136301.0;0
136292;2.0;61.0;6.0;136287;;;0
136389;0.0;1.0;0.0;136384;136345.0;136432.0;0
136425;2.0;61.0;6.0;136420;;;0
136518;0.0;0.0;0.0;136513;136475.0;136561.0;0
136554;2.0;61.0;6.0;136549;;;0
136647;0.0;4.0;0.0;136642;136604.0;136691.0;0
136683;2.0;61.0;6.0;136678;;;0
136779;0.0;3.0;0.0;136775;136735.0;136822.0;0
136816;2.0;61.0;6.0;136811;;;0
136909;0.0;1.0;0.0;136904;136865.0;136953.0;0
136983;2.0;63.0;6.0;136983;;;0
137041;0.0;1.0;0.0;137036;136997.0;137083.0;0
137077;2.0;61.0;6.0;137072;;;0
137118;2.0;62.0;6.0;137118;;;0
137169;0.0;1.0;0.0;137164;137126.0;137213.0;0
137205;2.0;61.0;6.0;137200;;;0
137302;0.0;1.0;0.0;137298;137257.0;137344.0;0
137338;2.0;61.0;6.0;137333;;;0
137430;0.0;0.0;0.0;137425;137387.0;137474.0;0
137466;2.0;61.0;6.0;137461;;;0
137510;2.0;63.0;6.0;137510;;;0
137562;0.0;1.0;0.0;137557;137518.0;137605.0;0
137599;2.0;61.0;6.0;137594;;;0
137692;0.0;3.0;0.0;137687;137648.0;137736.0;0
137729;2.0;61.0;6.0;137724;;;0
137824;0.0;1.0;0.0;137820;137780.0;137868.0;0
137860;2.0;61.0;6.0;137855;;;0
137956;0.0;1.0;0.0;137951;137912.0;137999.0;0
137992;2.0;61.0;6.0;137987;;;0
138087;0.0;1.0;0.0;138082;138043.0;138130.0;0
138124;2.0;61.0;6.0;138119;;;0
138217;0.0;1.0;0.0;138212;138173.0;138260.0;0
138346;0.0;1.0;0.0;138341;138303.0;138388.0;0
138383;2.0;61.0;6.0;138378;;;0
138420;2.0;63.0;6.0;138420;;;0
138473;0.0;1.0;0.0;138468;138430.0;138516.0;0
138509;2.0;61.0;6.0;138504;;;0
138543;2.0;63.0;6.0;138543;;;0
138602;0.0;1.0;0.0;138597;138559.0;138644.0;0
138730;0.0;1.0;0.0;138725;138687.0;138773.0;0
138767;2.0;61.0;6.0;138762;;;0
138795;2.0;63.0;6.0;138791;;;0
138860;0.0;1.0;0.0;138855;138816.0;138903.0;0
138895;2.0;61.0;6.0;138890;;;0
138989;0.0;1.0;0.0;138984;138946.0;139034.0;0
139063;2.0;63.0;6.0;139059;;;0
139124;0.0;2.0;0.0;139124;139079.0;139167.0;0
139254;0.0;2.0;0.0;139254;139210.0;139296.0;0
139285;2.0;60.0;6.0;139280;;;0
139319;2.0;62.0;6.0;139319;;;0
139380;0.0;0.0;0.0;139375;139338.0;139424.0;0
139416;2.0;61.0;6.0;139411;;;0
139462;2.0;62.0;6.0;139459;;;0
139513;0.0;4.0;0.0;139509;139468.0;139556.0;0
139549;2.0;61.0;6.0;139544;;;0
139644;0.0;3.0;0.0;139639;139600.0;139688.0;0
139680;2.0;61.0;6.0;139675;;;0
139776;0.0;4.0;0.0;139771;139732.0;139821.0;0
139813;2.0;61.0;6.0;139808;;;0
139860;2.0;62.0;6.0;139860;;;0
139912;0.0;0.0;0.0;139907;139866.0;139955.0;0
140041;0.0;0.0;0.0;140037;139998.0;140085.0;0
140076;2.0;61.0;6.0;140071;;;0
140173;0.0;0.0;0.0;140168;140129.0;140217.0;0
140210;2.0;61.0;6.0;140205;;;0
140250;2.0;62.0;6.0;140245;;;0
140306;0.0;1.0;0.0;140301;140261.0;140350.0;0
140439;0.0;0.0;0.0;140434;140394.0;140482.0;0
140475;2.0;60.0;6.0;140470;;;0
140569;0.0;0.0;0.0;140564;140525.0;140613.0;0
140605;2.0;61.0;6.0;140600;;;0
140652;2.0;63.0;6.0;140649;;;0
140703;0.0;1.0;0.0;140698;140658.0;140746.0;0
140774;2.0;62.0;6.0;140769;;;0
140833;0.0;3.0;0.0;140829;140789.0;140877.0;0
140869;2.0;60.0;6.0;140864;;;0
140899;2.0;62.0;6.0;140897;;;0
140965;0.0;4.0;0.0;140960;140921.0;141009.0;0
141001;2.0;61.0;6.0;140996;;;0
141099;0.0;0.0;0.0;141094;141054.0;141142.0;0
141162;2.0;63.0;6.0;141162;;;0
141229;0.0;3.0;0.0;141225;141185.0;141272.0;0
141265;2.0;60.0;6.0;141260;;;0
141360;0.0;3.0;0.0;141355;141316.0;141404.0;0
141396;2.0;61.0;6.0;141391;;;0
141494;0.0;4.0;0.0;141489;141449.0;141538.0;0
141530;2.0;61.0;6.0;141525;;;0
141567;2.0;62.0;6.0;141566;;;0
141627;0.0;0.0;0.0;141622;141582.0;141670.0;0
141758;0.0;4.0;0.0;141753;141714.0;141802.0;0
141892;0.0;0.0;0.0;141887;141847.0;141935.0;0
141928;2.0;60.0;6.0;141923;;;0
142021;0.0;3.0;0.0;142016;141978.0;142065.0;0
142057;2.0;60.0;6.0;142052;;;0
142154;0.0;0.0;0.0;142149;142109.0;142198.0;0
142190;2.0;60.0;6.0;142185;;;0
142286;0.0;3.0;0.0;142281;142242.0;142330.0;0
142419;0.0;0.0;0.0;142414;142374.0;142463.0;0
142456;2.0;61.0;6.0;142451;;;0
142553;0.0;4.0;0.0;142548;142508.0;142597.0;0
142590;2.0;61.0;6.0;142585;;;0
142687;0.0;0.0;0.0;142682;142642.0;142730.0;0
142729;2.0;61.0;6.0;142729;;;0
142818;0.0;1.0;0.0;142813;142774.0;142861.0;0
142868;2.0;63.0;6.0;142868;;;0
142906;2.0;62.0;6.0;142902;;;0
142949;0.0;0.0;0.0;142945;142905.0;142993.0;0
143081;0.0;2.0;0.0;143081;143037.0;143122.0;0
143113;2.0;60.0;6.0;143108;;;0
143150;2.0;62.0;6.0;143150;;;0
143206;0.0;0.0;0.0;143201;143164.0;143250.0;0
143243;2.0;61.0;6.0;143238;;;0
143339;0.0;0.0;0.0;143334;143294.0;143382.0;0
143371;2.0;60.0;6.0;143369;;;0
143469;0.0;4.0;0.0;143465;143425.0;143513.0;0
143505;2.0;61.0;6.0;143502;;;0
143550;2.0;62.0;6.0;143547;;;0
143601;0.0;0.0;0.0;143597;143557.0;143643.0;0
143729;0.0;3.0;0.0;143724;143686.0;143773.0;0
143803;2.0;62.0;6.0;143802;;;0
143861;0.0;0.0;0.0;143856;143817.0;143905.0;0
143897;2.0;61.0;6.0;143892;;;0
143928;2.0;63.0;6.0;143924;;;0
143993;0.0;4.0;0.0;143989;143949.0;144037.0;0
144125;0.0;4.0;0.0;144120;144081.0;144169.0;0
144257;0.0;3.0;0.0;144252;144213.0;144299.0;0
144385;0.0;3.0;0.0;144380;144342.0;144429.0;0
144422;2.0;61.0;6.0;144417;;;0
144518;0.0;0.0;0.0;144513;144473.0;144562.0;0
144553;2.0;61.0;6.0;144548;;;0
144651;0.0;3.0;0.0;144646;144606.0;144694.0;0
144687;2.0;60.0;6.0;144682;;;0
144781;0.0;0.0;0.0;144776;144737.0;144825.0;0
144816;2.0;60.0;6.0;144811;;;0
144915;0.0;0.0;0.0;144910;144870.0;144959.0;0
144951;2.0;61.0;6.0;144946;;;0
145047;0.0;3.0;0.0;145043;145003.0;145090.0;0
145083;2.0;60.0;6.0;145078;;;0
145177;0.0;3.0;0.0;145172;145133.0;145221.0;0
145213;2.0;60.0;6.0;145208;;;0
145311;0.0;3.0;0.0;145306;145266.0;145355.0;0
145444;0.0;3.0;0.0;145439;145399.0;145487.0;0
145479;2.0;60.0;6.0;145474;;;0
145575;0.0;3.0;0.0;145570;145531.0;145620.0;0
145610;2.0;60.0;6.0;145605;;;0
145710;0.0;0.0;0.0;145705;145665.0;145753.0;0
145841;0.0;3.0;0.0;145836;145797.0;145884.0;0
145910;2.0;62.0;6.0;145909;;;0
145971;0.0;3.0;0.0;145966;145927.0;146016.0;0
146007;2.0;61.0;6.0;146002;;;0
146106;0.0;0.0;0.0;146101;146061.0;146150.0;0
146239;0.0;3.0;0.0;146234;146194.0;146282.0;0
146275;2.0;60.0;6.0;146270;;;0
146369;0.0;0.0;0.0;146364;146325.0;146413.0;0
146502;0.0;4.0;0.0;146497;146457.0;146545.0;0
146633;0.0;3.0;0.0;146628;146589.0;146676.0;0
146669;2.0;60.0;6.0;146664;;;0
146764;0.0;4.0;0.0;146759;146720.0;146809.0;0
146899;0.0;0.0;0.0;146894;146854.0;146942.0;0
146936;2.0;60.0;6.0;146931;;;0
146977;2.0;62.0;6.0;146977;;;0
147030;0.0;0.0;0.0;147025;146986.0;147074.0;0
147164;0.0;0.0;0.0;147159;147119.0;147207.0;0
147200;2.0;61.0;6.0;147195;;;0
147295;0.0;0.0;0.0;147290;147251.0;147338.0;0
147331;2.0;61.0;6.0;147326;;;0
147426;0.0;3.0;0.0;147422;147382.0;147470.0;0
147463;2.0;60.0;6.0;147458;;;0
147559;0.0;4.0;0.0;147554;147514.0;147603.0;0
147596;2.0;61.0;6.0;147591;;;0
147691;0.0;0.0;0.0;147686;147647.0;147735.0;0
147727;2.0;61.0;6.0;147722;;;0
147781;2.0;62.0;6.0;147777;;;0
147824;0.0;0.0;0.0;147819;147779.0;147867.0;0
147861;2.0;61.0;6.0;147856;;;0
147954;0.0;0.0;0.0;147949;147910.0;147997.0;0
148085;0.0;4.0;0.0;148081;148041.0;148129.0;0
148218;0.0;4.0;0.0;148213;148173.0;148262.0;0
148300;2.0;62.0;6.0;148300;;;0
148351;0.0;0.0;0.0;148346;148306.0;148394.0;0
148388;2.0;61.0;6.0;148383;;;0
148425;2.0;62.0;6.0;148421;;;0
148481;0.0;0.0;0.0;148476;148437.0;148524.0;0
148517;2.0;61.0;6.0;148512;;;0
148611;0.0;1.0;0.0;148606;148567.0;148655.0;0
148648;2.0;61.0;6.0;148643;;;0
148743;0.0;4.0;0.0;148738;148699.0;148786.0;0
148777;2.0;61.0;6.0;148772;;;0
148806;2.0;63.0;6.0;148803;;;0
148872;0.0;3.0;0.0;148867;148829.0;148916.0;0
148908;2.0;61.0;6.0;148903;;;0
148945;2.0;62.0;6.0;148940;;;0
149004;0.0;1.0;0.0;148999;148960.0;149048.0;0
149040;2.0;61.0;6.0;149035;;;0
149137;0.0;1.0;0.0;149132;149092.0;149181.0;0
149173;2.0;61.0;6.0;149168;;;0
149209;2.0;62.0;6.0;149209;;;0
149269;0.0;0.0;0.0;149265;149225.0;149312.0;0
149304;2.0;61.0;6.0;149299;;;0
149400;0.0;1.0;0.0;149395;149356.0;149444.0;0
149436;2.0;61.0;6.0;149431;;;0
149532;0.0;1.0;0.0;149527;149488.0;149576.0;0
149569;2.0;61.0;6.0;149564;;;0
149664;0.0;0.0;0.0;149659;149620.0;149707.0;0
149701;2.0;60.0;6.0;149696;;;0
149795;0.0;0.0;0.0;149790;149751.0;149839.0;0
149832;2.0;61.0;6.0;149827;;;0
149928;0.0;1.0;0.0;149924;149883.0;149971.0;0
149965;2.0;61.0;6.0;149960;;;0
150057;0.0;4.0;0.0;150053;150014.0;150101.0;0
150094;2.0;61.0;6.0;150089;;;0
150190;0.0;1.0;0.0;150186;150145.0;150234.0;0
150227;2.0;61.0;6.0;150222;;;0
150323;0.0;0.0;0.0;150319;150278.0;150366.0;0
150359;2.0;61.0;6.0;150354;;;0
150401;2.0;62.0;6.0;150401;;;0
150454;0.0;0.0;0.0;150449;150410.0;150498.0;0
150490;2.0;61.0;6.0;150485;;;0
150587;0.0;0.0;0.0;150582;150542.0;150631.0;0
150624;2.0;61.0;6.0;150619;;;0
150658;2.0;62.0;6.0;150658;;;0
150720;0.0;3.0;0.0;150715;150675.0;150764.0;0
150756;2.0;60.0;6.0;150751;;;0
150852;0.0;0.0;0.0;150847;150808.0;150897.0;0
150888;2.0;61.0;6.0;150883;;;0
150987;0.0;0.0;0.0;150982;150942.0;151031.0;0
151023;2.0;61.0;6.0;151018;;;0
151119;0.0;0.0;0.0;151114;151075.0;151163.0;0
151156;2.0;60.0;6.0;151151;;;0
151252;0.0;3.0;0.0;151247;151207.0;151296.0;0
151386;0.0;3.0;0.0;151381;151341.0;151429.0;0
151424;2.0;60.0;6.0;151419;;;0
151516;0.0;3.0;0.0;151512;151472.0;151561.0;0
151553;2.0;61.0;6.0;151548;;;0
151586;2.0;62.0;6.0;151586;;;0
151652;0.0;0.0;0.0;151647;151606.0;151698.0;0
151689;2.0;61.0;6.0;151684;;;0
151736;2.0;62.0;6.0;151733;;;0
151790;0.0;4.0;0.0;151785;151744.0;151834.0;0
151924;0.0;3.0;0.0;151919;151879.0;151970.0;0
152062;0.0;3.0;0.0;152057;152016.0;152108.0;0
152098;2.0;60.0;6.0;152093;;;0
152200;0.0;0.0;0.0;152195;152154.0;152244.0;0
152237;2.0;60.0;6.0;152232;;;0
152332;0.0;3.0;0.0;152327;152288.0;152377.0;0
152369;2.0;61.0;6.0;152364;;;0
152468;0.0;4.0;0.0;152463;152422.0;152513.0;0
152504;2.0;61.0;6.0;152499;;;0
152605;0.0;1.0;0.0;152600;152559.0;152649.0;0
152738;0.0;0.0;0.0;152733;152693.0;152782.0;0
152871;0.0;4.0;0.0;152866;152826.0;152916.0;0
153007;0.0;4.0;0.0;153003;152961.0;153051.0;0
153044;2.0;61.0;6.0;153039;;;0
153073;2.0;63.0;6.0;153073;;;0
153139;0.0;0.0;0.0;153134;153095.0;153182.0;0
153175;2.0;60.0;6.0;153170;;;0
153270;0.0;4.0;0.0;153265;153226.0;153315.0;0
153307;2.0;61.0;6.0;153302;;;0
153405;0.0;0.0;0.0;153400;153360.0;153449.0;0
153442;2.0;61.0;6.0;153437;;;0
153538;0.0;3.0;0.0;153533;153493.0;153582.0;0
153575;2.0;60.0;6.0;153570;;;0
153671;0.0;0.0;0.0;153666;153626.0;153716.0;0
153708;2.0;61.0;6.0;153703;;;0
153744;2.0;62.0;6.0;153743;;;0
153806;0.0;0.0;0.0;153801;153761.0;153850.0;0
153885;2.0;62.0;6.0;153883;;;0
153939;0.0;3.0;0.0;153934;153894.0;153982.0;0
153976;2.0;60.0;6.0;153971;;;0
154069;0.0;0.0;0.0;154064;154025.0;154113.0;0
154203;0.0;4.0;0.0;154198;154158.0;154248.0;0
154240;2.0;61.0;6.0;154235;;;0
154338;0.0;0.0;0.0;154333;154293.0;154381.0;0
154375;2.0;61.0;6.0;154370;;;0
154412;2.0;62.0;6.0;154410;;;0
154469;0.0;4.0;0.0;154464;154425.0;154513.0;0
154506;2.0;61.0;6.0;154501;;;0
154602;0.0;0.0;0.0;154597;154557.0;154646.0;0
154639;2.0;61.0;6.0;154634;;;0
154736;0.0;0.0;0.0;154731;154691.0;154779.0;0
154772;2.0;61.0;6.0;154767;;;0
154866;0.0;3.0;0.0;154862;154822.0;154910.0;0
154902;2.0;60.0;6.0;154897;;;0
154998;0.0;0.0;0.0;154993;154954.0;155042.0;0
155034;2.0;61.0;6.0;155029;;;0
155131;0.0;0.0;0.0;155126;155086.0;155174.0;0
155167;2.0;61.0;6.0;155162;;;0
155261;0.0;3.0;0.0;155256;155217.0;155304.0;0
155298;2.0;60.0;6.0;155293;;;0
155391;0.0;4.0;0.0;155386;155347.0;155435.0;0
155427;2.0;61.0;6.0;155422;;;0
155462;2.0;62.0;6.0;155459;;;0
155524;0.0;4.0;0.0;155519;155479.0;155567.0;0
155561;2.0;60.0;6.0;155556;;;0
155654;0.0;3.0;0.0;155649;155610.0;155697.0;0
155691;2.0;60.0;6.0;155686;;;0
155785;0.0;4.0;0.0;155780;155741.0;155830.0;0
155853;2.0;63.0;6.0;155853;;;0
155920;0.0;0.0;0.0;155915;155875.0;155963.0;0
155957;2.0;60.0;6.0;155952;;;0
155991;2.0;62.0;6.0;155991;;;0
156050;0.0;3.0;0.0;156046;156006.0;156094.0;0
156087;2.0;60.0;6.0;156082;;;0
156124;2.0;62.0;6.0;156121;;;0
156183;0.0;4.0;0.0;156178;156138.0;156227.0;0
156220;2.0;61.0;6.0;156215;;;0
156317;0.0;0.0;0.0;156312;156272.0;156360.0;0
156353;2.0;61.0;6.0;156348;;;0
156446;0.0;4.0;0.0;156441;156403.0;156490.0;0
156483;2.0;61.0;6.0;156478;;;0
156580;0.0;1.0;0.0;156575;156535.0;156624.0;0
156616;2.0;61.0;6.0;156611;;;0
156713;0.0;0.0;0.0;156708;156668.0;156756.0;0
156749;2.0;61.0;6.0;156744;;;0
156844;0.0;0.0;0.0;156839;156800.0;156888.0;0
156880;2.0;61.0;6.0;156875;;;0
156976;0.0;4.0;0.0;156971;156932.0;157019.0;0
157013;2.0;61.0;6.0;157008;;;0
157106;0.0;3.0;0.0;157101;157062.0;157150.0;0
157143;2.0;61.0;6.0;157138;;;0
157239;0.0;4.0;0.0;157235;157194.0;157283.0;0
157276;2.0;61.0;6.0;157271;;;0
157373;0.0;0.0;0.0;157368;157328.0;157416.0;0
157410;2.0;61.0;6.0;157405;;;0
157442;2.0;62.0;6.0;157442;;;0
157503;0.0;4.0;0.0;157498;157459.0;157547.0;0
157540;2.0;61.0;6.0;157535;;;0
157637;0.0;4.0;0.0;157633;157592.0;157681.0;0
157674;2.0;61.0;6.0;157669;;;0
157771;0.0;4.0;0.0;157766;157726.0;157814.0;0
157809;2.0;61.0;6.0;157804;;;0
157845;2.0;62.0;6.0;157844;;;0
157902;0.0;4.0;0.0;157897;157858.0;157947.0;0
157940;2.0;61.0;6.0;157935;;;0
158037;0.0;4.0;0.0;158033;157992.0;158081.0;0
158074;2.0;61.0;6.0;158069;;;0
158170;0.0;1.0;0.0;158165;158125.0;158214.0;0
158206;2.0;61.0;6.0;158201;;;0
158303;0.0;0.0;0.0;158299;158258.0;158347.0;0
158339;2.0;61.0;6.0;158334;;;0
158371;2.0;63.0;6.0;158371;;;0
158437;0.0;1.0;0.0;158432;158392.0;158480.0;0
158567;0.0;1.0;0.0;158562;158523.0;158611.0;0
158700;0.0;1.0;0.0;158695;158655.0;158743.0;0
158767;2.0;63.0;6.0;158765;;;0
158830;0.0;4.0;0.0;158825;158786.0;158874.0;0
158867;2.0;61.0;6.0;158862;;;0
158894;2.0;63.0;6.0;158892;;;0
158962;0.0;1.0;0.0;158957;158918.0;159005.0;0
159093;0.0;4.0;0.0;159088;159049.0;159137.0;0
159129;2.0;61.0;6.0;159124;;;0
159165;2.0;63.0;6.0;159162;;;0
159225;0.0;1.0;0.0;159220;159181.0;159269.0;0
159262;2.0;61.0;6.0;159257;;;0
159291;2.0;63.0;6.0;159286;;;0
159358;0.0;1.0;0.0;159353;159313.0;159403.0;0
159394;2.0;61.0;6.0;159389;;;0
159493;0.0;0.0;0.0;159488;159448.0;159536.0;0
159567;2.0;62.0;6.0;159564;;;0
159623;0.0;0.0;0.0;159618;159579.0;159667.0;0
159660;2.0;60.0;6.0;159655;;;0
159696;2.0;62.0;6.0;159694;;;0
159755;0.0;4.0;0.0;159750;159711.0;159799.0;0
159792;2.0;61.0;6.0;159787;;;0
159889;0.0;3.0;0.0;159884;159844.0;159931.0;0
159926;2.0;60.0;6.0;159921;;;0
160017;0.0;3.0;0.0;160012;159974.0;160060.0;0
160054;2.0;60.0;6.0;160049;;;0
160147;0.0;0.0;0.0;160142;160103.0;160190.0;0
160183;2.0;60.0;6.0;160178;;;0
160229;2.0;62.0;6.0;160226;;;0
160278;0.0;3.0;0.0;160273;160234.0;160322.0;0
160314;2.0;60.0;6.0;160309;;;0
160347;2.0;62.0;6.0;160345;;;0
160410;0.0;0.0;0.0;160405;160366.0;160453.0;0
160447;2.0;60.0;6.0;160442;;;0
160539;0.0;3.0;0.0;160534;160496.0;160583.0;0
160576;2.0;60.0;6.0;160571;;;0
160671;0.0;0.0;0.0;160666;160627.0;160714.0;0
160708;2.0;61.0;6.0;160703;;;0
160802;0.0;3.0;0.0;160797;160758.0;160844.0;0
160839;2.0;60.0;6.0;160834;;;0
160930;0.0;3.0;0.0;160925;160887.0;160974.0;0
160967;2.0;60.0;6.0;160962;;;0
161062;0.0;0.0;0.0;161057;161018.0;161106.0;0
161098;2.0;60.0;6.0;161093;;;0
161194;0.0;4.0;0.0;161190;161150.0;161238.0;0
161231;2.0;61.0;6.0;161226;;;0
161263;2.0;63.0;6.0;161263;;;0
161326;0.0;0.0;0.0;161322;161282.0;161368.0;0
161363;2.0;60.0;6.0;161358;;;0
161454;0.0;4.0;0.0;161449;161411.0;161498.0;0
161491;2.0;61.0;6.0;161486;;;0
161587;0.0;1.0;0.0;161582;161542.0;161630.0;0
161624;2.0;61.0;6.0;161619;;;0
161669;2.0;62.0;6.0;161669;;;0
161717;0.0;3.0;0.0;161712;161673.0;161761.0;0
161754;2.0;60.0;6.0;161749;;;0
161849;0.0;4.0;0.0;161845;161805.0;161893.0;0
161886;2.0;61.0;6.0;161881;;;0
161982;0.0;4.0;0.0;161977;161937.0;162026.0;0
162019;2.0;61.0;6.0;162014;;;0
162116;0.0;0.0;0.0;162111;162071.0;162136.0;0
162177;4.0;121.0;117.0;162173;162156.0;162199.0;0
162245;0.0;3.0;0.0;162241;162222.0;162288.0;0
162281;2.0;60.0;6.0;162276;;;0
162376;0.0;4.0;0.0;162371;162332.0;162419.0;0
162413;2.0;61.0;6.0;162408;;;0
162507;0.0;3.0;0.0;162503;162463.0;162550.0;0
162545;2.0;60.0;6.0;162540;;;0
162637;0.0;0.0;0.0;162632;162593.0;162680.0;0
162768;0.0;1.0;0.0;162763;162724.0;162811.0;0
162805;2.0;61.0;6.0;162800;;;0
162898;0.0;3.0;0.0;162893;162854.0;162941.0;0
162935;2.0;60.0;6.0;162930;;;0
163028;0.0;3.0;0.0;163023;162984.0;163072.0;0
163065;2.0;61.0;6.0;163060;;;0
163160;0.0;3.0;0.0;163155;163116.0;163203.0;0
163197;2.0;60.0;6.0;163192;;;0
163236;2.0;62.0;6.0;163232;;;0
163289;0.0;3.0;0.0;163285;163246.0;163333.0;0
163325;2.0;61.0;6.0;163320;;;0
163358;2.0;63.0;6.0;163358;;;0
163421;0.0;4.0;0.0;163416;163377.0;163464.0;0
163458;2.0;61.0;6.0;163453;;;0
163552;0.0;0.0;0.0;163547;163508.0;163595.0;0
163589;2.0;60.0;6.0;163584;;;0
163632;2.0;62.0;6.0;163628;;;0
163683;0.0;4.0;0.0;163679;163639.0;163727.0;0
163747;2.0;63.0;6.0;163743;;;0
163815;0.0;0.0;0.0;163811;163771.0;163857.0;0
163942;0.0;0.0;0.0;163938;163899.0;163985.0;0
163979;2.0;61.0;6.0;163974;;;0
164073;0.0;4.0;0.0;164068;164029.0;164117.0;0
164110;2.0;61.0;6.0;164105;;;0
164141;2.0;63.0;6.0;164140;;;0
164205;0.0;0.0;0.0;164200;164161.0;164247.0;0
164242;2.0;60.0;6.0;164237;;;0
164332;0.0;3.0;0.0;164327;164289.0;164375.0;0
164369;2.0;60.0;6.0;164364;;;0
164462;0.0;3.0;0.0;164457;164418.0;164504.0;0
164499;2.0;60.0;6.0;164494;;;0
164537;2.0;62.0;6.0;164533;;;0
164588;0.0;3.0;0.0;164583;164546.0;164631.0;0
164624;2.0;60.0;6.0;164619;;;0
164663;2.0;62.0;6.0;164658;;;0
164719;0.0;0.0;0.0;164714;164675.0;164762.0;0
164755;2.0;61.0;6.0;164750;;;0
164849;0.0;0.0;0.0;164844;164805.0;164892.0;0
164978;0.0;0.0;0.0;164973;164935.0;165021.0;0
165015;2.0;61.0;6.0;165010;;;0
165042;2.0;63.0;6.0;165041;;;0
165107;0.0;3.0;0.0;165103;165064.0;165150.0;0
165144;2.0;61.0;6.0;165139;;;0
165188;2.0;62.0;6.0;165188;;;0
165237;0.0;4.0;0.0;165232;165193.0;165281.0;0
165273;2.0;61.0;6.0;165268;;;0
165310;2.0;63.0;6.0;165305;;;0
165369;0.0;4.0;0.0;165364;165325.0;165412.0;0
165405;2.0;61.0;6.0;165400;;;0
165446;2.0;62.0;6.0;165441;;;0
165498;0.0;0.0;0.0;165493;165455.0;165542.0;0
165630;0.0;1.0;0.0;165625;165586.0;165672.0;0
165758;0.0;4.0;0.0;165753;165715.0;165801.0;0
165794;2.0;61.0;6.0;165789;;;0
165823;2.0;63.0;6.0;165821;;;0
165889;0.0;1.0;0.0;165884;165845.0;165932.0;0
165925;2.0;61.0;6.0;165920;;;0
165959;2.0;63.0;6.0;165959;;;0
166018;0.0;1.0;0.0;166013;165975.0;166060.0;0
166055;2.0;61.0;6.0;166050;;;0
166146;0.0;4.0;0.0;166141;166103.0;166190.0;0
166278;0.0;4.0;0.0;166274;166234.0;166321.0;0
166409;0.0;1.0;0.0;166404;166365.0;166452.0;0
166446;2.0;61.0;6.0;166441;;;0
166539;0.0;1.0;0.0;166534;166495.0;166583.0;0
166576;2.0;61.0;6.0;166571;;;0
166671;0.0;1.0;0.0;166667;166627.0;166715.0;0
166707;2.0;61.0;6.0;166702;;;0
166803;0.0;0.0;0.0;166798;166759.0;166845.0;0
166840;2.0;61.0;6.0;166835;;;0
166930;0.0;0.0;0.0;166925;166887.0;166973.0;0
166978;2.0;63.0;6.0;166978;;;0
167061;0.0;3.0;0.0;167056;167017.0;167103.0;0
167098;2.0;61.0;6.0;167093;;;0
167188;0.0;0.0;0.0;167183;167145.0;167230.0;0
167226;2.0;61.0;6.0;167221;;;0
167315;0.0;0.0;0.0;167310;167272.0;167357.0;0
167352;2.0;61.0;6.0;167347;;;0
167390;2.0;62.0;6.0;167390;;;0
167443;0.0;3.0;0.0;167439;167400.0;167485.0;0
167518;2.0;62.0;6.0;167515;;;0
167570;0.0;3.0;0.0;167565;167527.0;167614.0;0
167607;2.0;61.0;6.0;167602;;;0
167703;0.0;4.0;0.0;167698;167658.0;167747.0;0
167739;2.0;61.0;6.0;167734;;;0
167836;0.0;4.0;0.0;167831;167791.0;167879.0;0
167874;2.0;61.0;6.0;167869;;;0
167967;0.0;3.0;0.0;167963;167923.0;168012.0;0
168003;2.0;60.0;6.0;167998;;;0
168102;0.0;0.0;0.0;168097;168057.0;168147.0;0
168137;2.0;61.0;6.0;168132;;;0
168237;0.0;0.0;0.0;168232;168192.0;168282.0;0
168302;2.0;63.0;6.0;168302;;;0
168373;0.0;0.0;0.0;168368;168327.0;168416.0;0
168410;2.0;60.0;6.0;168405;;;0
168458;2.0;62.0;6.0;168453;;;0
168504;0.0;3.0;0.0;168500;168460.0;168549.0;0
168541;2.0;60.0;6.0;168536;;;0
168639;0.0;4.0;0.0;168634;168594.0;168684.0;0
168676;2.0;61.0;6.0;168671;;;0
168775;0.0;0.0;0.0;168770;168729.0;168818.0;0
168843;2.0;63.0;6.0;168841;;;0
168906;0.0;3.0;0.0;168901;168862.0;168949.0;0
168942;2.0;60.0;6.0;168937;;;0
169037;0.0;1.0;0.0;169032;168993.0;169082.0;0
169071;2.0;61.0;6.0;169066;;;0
169172;0.0;1.0;0.0;169168;169127.0;169217.0;0
169209;2.0;61.0;6.0;169204;;;0
169307;0.0;4.0;0.0;169302;169262.0;169351.0;0
169345;2.0;61.0;6.0;169340;;;0
169440;0.0;0.0;0.0;169435;169395.0;169484.0;0
169477;2.0;61.0;6.0;169472;;;0
169573;0.0;1.0;0.0;169568;169528.0;169618.0;0
169610;2.0;61.0;6.0;169605;;;0
169709;0.0;4.0;0.0;169704;169663.0;169753.0;0
169747;2.0;61.0;6.0;169742;;;0
169775;2.0;63.0;6.0;169775;;;0
169842;0.0;0.0;0.0;169837;169797.0;169886.0;0
169974;0.0;4.0;0.0;169969;169930.0;170019.0;0
170010;2.0;61.0;6.0;170005;;;0
170067;2.0;63.0;6.0;170067;;;0
170109;0.0;4.0;0.0;170104;170064.0;170153.0;0
170146;2.0;61.0;6.0;170141;;;0
170242;0.0;3.0;0.0;170237;170197.0;170286.0;0
170279;2.0;60.0;6.0;170274;;;0
170374;0.0;4.0;0.0;170369;170330.0;170419.0;0
170410;2.0;61.0;6.0;170405;;;0
170510;0.0;1.0;0.0;170505;170464.0;170554.0;0
170547;2.0;61.0;6.0;170542;;;0
170642;0.0;3.0;0.0;170638;170598.0;170688.0;0
170679;2.0;60.0;6.0;170674;;;0
170780;0.0;0.0;0.0;170775;170734.0;170825.0;0
170817;2.0;61.0;6.0;170812;;;0
170870;2.0;62.0;6.0;170870;;;0
170917;0.0;3.0;0.0;170912;170871.0;170961.0;0
170954;2.0;60.0;6.0;170949;;;0
171000;2.0;62.0;6.0;170996;;;0
171051;0.0;4.0;0.0;171047;171006.0;171095.0;0
171185;0.0;3.0;0.0;171180;171140.0;171230.0;0
171322;0.0;0.0;0.0;171317;171276.0;171367.0;0
171358;2.0;61.0;6.0;171353;;;0
171458;0.0;3.0;0.0;171453;171412.0;171502.0;0
171541;2.0;62.0;6.0;171541;;;0
171591;0.0;3.0;0.0;171586;171546.0;171635.0;0
171629;2.0;60.0;6.0;171624;;;0
171666;2.0;62.0;6.0;171666;;;0
171724;0.0;0.0;0.0;171720;171679.0;171768.0;0
171761;2.0;61.0;6.0;171756;;;0
171857;0.0;4.0;0.0;171852;171812.0;171901.0;0
171895;2.0;61.0;6.0;171890;;;0
171991;0.0;1.0;0.0;171987;171946.0;172034.0;0
172027;2.0;61.0;6.0;172022;;;0
172122;0.0;4.0;0.0;172117;172078.0;172165.0;0
172159;2.0;61.0;6.0;172154;;;0
172252;0.0;3.0;0.0;172248;172208.0;172296.0;0
172384;0.0;4.0;0.0;172379;172340.0;172428.0;0
172422;2.0;61.0;6.0;172417;;;0
172517;0.0;4.0;0.0;172512;172472.0;172561.0;0
172555;2.0;61.0;6.0;172550;;;0
172595;2.0;63.0;6.0;172593;;;0
172651;0.0;1.0;0.0;172646;172606.0;172694.0;0
172689;2.0;61.0;6.0;172684;;;0
172729;2.0;62.0;6.0;172729;;;0
172781;0.0;3.0;0.0;172776;172737.0;172825.0;0
172818;2.0;60.0;6.0;172813;;;0
172914;0.0;4.0;0.0;172910;172869.0;172958.0;0
172951;2.0;61.0;6.0;172946;;;0
173048;0.0;0.0;0.0;173043;173003.0;173092.0;0
173085;2.0;60.0;6.0;173080;;;0
173182;0.0;0.0;0.0;173177;173137.0;173226.0;0
173219;2.0;60.0;6.0;173214;;;0
173248;2.0;63.0;6.0;173248;;;0
173316;0.0;0.0;0.0;173311;173271.0;173359.0;0
173352;2.0;60.0;6.0;173347;;;0
173399;2.0;62.0;6.0;173396;;;0
173447;0.0;3.0;0.0;173443;173403.0;173491.0;0
173484;2.0;60.0;6.0;173479;;;0
173581;0.0;3.0;0.0;173576;173536.0;173625.0;0
173618;2.0;60.0;6.0;173613;;;0
173713;0.0;3.0;0.0;173708;173669.0;173758.0;0
173848;0.0;0.0;0.0;173843;173803.0;173893.0;0
173885;2.0;61.0;6.0;173880;;;0
173983;0.0;0.0;0.0;173978;173938.0;174027.0;0
174018;2.0;61.0;6.0;174013;;;0
174117;0.0;4.0;0.0;174112;174072.0;174160.0;0
174155;2.0;60.0;6.0;174150;;;0
174194;2.0;62.0;6.0;174194;;;0
174247;0.0;3.0;0.0;174242;174203.0;174291.0;0
174284;2.0;60.0;6.0;174279;;;0
174381;0.0;4.0;0.0;174376;174336.0;174426.0;0
174419;2.0;61.0;6.0;174414;;;0
174516;0.0;3.0;0.0;174512;174471.0;174559.0;0
174553;2.0;60.0;6.0;174548;;;0
174582;2.0;63.0;6.0;174581;;;0
174647;0.0;3.0;0.0;174642;174603.0;174691.0;0
174685;2.0;60.0;6.0;174680;;;0
174779;0.0;0.0;0.0;174774;174735.0;174823.0;0
174816;2.0;61.0;6.0;174811;;;0
174863;2.0;62.0;6.0;174863;;;0
174911;0.0;0.0;0.0;174906;174867.0;174953.0;0
174947;2.0;60.0;6.0;174942;;;0
175038;0.0;4.0;0.0;175033;174995.0;175082.0;0
175075;2.0;61.0;6.0;175070;;;0
175172;0.0;0.0;0.0;175167;175127.0;175215.0;0
175209;2.0;61.0;6.0;175204;;;0
175301;0.0;4.0;0.0;175297;175258.0;175345.0;0
175338;2.0;61.0;6.0;175333;;;0
175434;0.0;1.0;0.0;175429;175389.0;175477.0;0
175471;2.0;61.0;6.0;175466;;;0
175512;2.0;62.0;6.0;175512;;;0
175565;0.0;3.0;0.0;175561;175521.0;175608.0;0
175602;2.0;60.0;6.0;175597;;;0
175640;2.0;62.0;6.0;175640;;;0
175695;0.0;4.0;0.0;175690;175651.0;175739.0;0
175732;2.0;61.0;6.0;175727;;;0
175827;0.0;4.0;0.0;175822;175783.0;175871.0;0
175865;2.0;61.0;6.0;175860;;;0
175959;0.0;0.0;0.0;175954;175915.0;176001.0;0
176087;0.0;0.0;0.0;176082;176044.0;176130.0;0
176123;2.0;61.0;6.0;176118;;;0
176218;0.0;0.0;0.0;176213;176174.0;176261.0;0
176254;2.0;61.0;6.0;176249;;;0
176347;0.0;0.0;0.0;176342;176304.0;176391.0;0
176384;2.0;61.0;6.0;176379;;;0
176479;0.0;0.0;0.0;176474;176435.0;176522.0;0
176516;2.0;61.0;6.0;176511;;;0
176551;2.0;62.0;6.0;176546;;;0
176610;0.0;3.0;0.0;176605;176566.0;176654.0;0
176647;2.0;61.0;6.0;176642;;;0
176743;0.0;0.0;0.0;176738;176698.0;176787.0;0
176780;2.0;61.0;6.0;176775;;;0
176875;0.0;0.0;0.0;176870;176831.0;176919.0;0
176911;2.0;61.0;6.0;176906;;;0
177008;0.0;2.0;0.0;177008;176963.0;177049.0;0
177075;2.0;62.0;6.0;177070;;;0
177133;0.0;4.0;0.0;177129;177091.0;177176.0;0
177171;2.0;61.0;6.0;177166;;;0
177264;0.0;0.0;0.0;177259;177220.0;177307.0;0
177300;2.0;61.0;6.0;177295;;;0
177393;0.0;0.0;0.0;177388;177350.0;177434.0;0
177428;2.0;61.0;6.0;177423;;;0
177518;0.0;0.0;0.0;177513;177476.0;177561.0;0
177555;2.0;61.0;6.0;177550;;;0
177647;0.0;4.0;0.0;177642;177604.0;177690.0;0
177684;2.0;61.0;6.0;177679;;;0
177778;0.0;0.0;0.0;177773;177734.0;177821.0;0
177813;2.0;61.0;6.0;177808;;;0
177908;0.0;4.0;0.0;177904;177864.0;177951.0;0
177945;2.0;61.0;6.0;177940;;;0
178039;0.0;0.0;0.0;178034;177995.0;178082.0;0
178076;2.0;60.0;6.0;178071;;;0
178169;0.0;0.0;0.0;178164;178125.0;178213.0;0
178205;2.0;61.0;6.0;178200;;;0
178301;0.0;0.0;0.0;178296;178257.0;178344.0;0
178432;0.0;3.0;0.0;178427;178388.0;178475.0;0
178469;2.0;60.0;6.0;178464;;;0
178562;0.0;0.0;0.0;178557;178518.0;178606.0;0
178599;2.0;61.0;6.0;178594;;;0
178626;2.0;63.0;6.0;178623;;;0
178694;0.0;0.0;0.0;178689;178650.0;178737.0;0
178731;2.0;61.0;6.0;178726;;;0
178823;0.0;3.0;0.0;178819;178780.0;178866.0;0
178860;2.0;60.0;6.0;178855;;;0
178904;2.0;62.0;6.0;178901;;;0
178953;0.0;4.0;0.0;178948;178909.0;178997.0;0
178991;2.0;61.0;6.0;178986;;;0
179085;0.0;3.0;0.0;179080;179041.0;179128.0;0
179123;2.0;60.0;6.0;179118;;;0
179214;0.0;3.0;0.0;179209;179171.0;179257.0;0
179252;2.0;60.0;6.0;179247;;;0
179277;2.0;63.0;6.0;179273;;;0
179345;0.0;0.0;0.0;179340;179301.0;179388.0;0
179382;2.0;61.0;6.0;179377;;;0
179418;2.0;62.0;6.0;179418;;;0
179476;0.0;0.0;0.0;179471;179432.0;179518.0;0
179513;2.0;60.0;6.0;179508;;;0
179558;2.0;62.0;6.0;179558;;;0
179604;0.0;0.0;0.0;179599;179561.0;179647.0;0
179641;2.0;60.0;6.0;179636;;;0
179734;0.0;0.0;0.0;179729;179690.0;179778.0;0
179771;2.0;61.0;6.0;179766;;;0
179822;2.0;62.0;6.0;179819;;;0
179867;0.0;4.0;0.0;179862;179822.0;179910.0;0
179904;2.0;61.0;6.0;179899;;;0
179996;0.0;3.0;0.0;179991;179953.0;180040.0;0
180034;2.0;60.0;6.0;180029;;;0
180128;0.0;0.0;0.0;180123;180084.0;180172.0;0
180261;0.0;0.0;0.0;180256;180216.0;180305.0;0
180394;0.0;0.0;0.0;180389;180349.0;180438.0;0
180431;2.0;61.0;6.0;180426;;;0
180527;0.0;3.0;0.0;180522;180482.0;180570.0;0
180565;2.0;60.0;6.0;180560;;;0
180658;0.0;3.0;0.0;180654;180614.0;180701.0;0
180696;2.0;60.0;6.0;180691;;;0
180788;0.0;0.0;0.0;180783;180744.0;180831.0;0
180918;0.0;0.0;0.0;180913;180874.0;180960.0;0
180956;2.0;61.0;6.0;180951;;;0
181046;0.0;3.0;0.0;181042;181003.0;181087.0;0
181083;2.0;60.0;6.0;181078;;;0
181171;0.0;3.0;0.0;181166;181129.0;181214.0;0
181209;2.0;60.0;6.0;181204;;;0
181301;0.0;0.0;0.0;181296;181257.0;181344.0;0
181338;2.0;61.0;6.0;181333;;;0
181368;2.0;63.0;6.0;181365;;;0
181431;0.0;3.0;0.0;181426;181387.0;181473.0;0
181468;2.0;60.0;6.0;181463;;;0
181557;0.0;3.0;0.0;181552;181515.0;181600.0;0
181622;2.0;63.0;6.0;181621;;;0
181688;0.0;0.0;0.0;181683;181644.0;181730.0;0
181725;2.0;60.0;6.0;181720;;;0
181815;0.0;0.0;0.0;181810;181772.0;181858.0;0
181852;2.0;60.0;6.0;181847;;;0
181946;0.0;0.0;0.0;181941;181902.0;181989.0;0
181983;2.0;61.0;6.0;181978;;;0
182075;0.0;3.0;0.0;182070;182032.0;182119.0;0
182207;0.0;4.0;0.0;182202;182163.0;182251.0;0
182274;2.0;63.0;6.0;182269;;;0
182310;2.0;62.0;6.0;182310;;;0
182340;0.0;4.0;0.0;182335;182295.0;182384.0;0
182429;2.0;62.0;6.0;182425;;;0
182474;0.0;1.0;0.0;182469;182429.0;182519.0;0
182512;2.0;61.0;6.0;182507;;;0
182555;2.0;63.0;6.0;182552;;;0
182610;0.0;2.0;0.0;182610;182564.0;182652.0;0
182672;2.0;63.0;6.0;182670;;;0
182736;0.0;0.0;0.0;182732;182694.0;182780.0;0
182773;2.0;61.0;6.0;182770;;;0
182869;0.0;1.0;0.0;182864;182824.0;182955.0;0
183002;2.0;62.0;6.0;183002;;;0
183046;2.0;61.0;6.0;183044;;;0
183129;0.0;1.0;0.0;183124;183042.0;183172.0;0
183182;2.0;63.0;6.0;183182;;;0
183258;0.0;0.0;0.0;183254;183215.0;183300.0;0
183297;2.0;60.0;6.0;183293;;;0
183386;0.0;3.0;0.0;183381;183343.0;183429.0;0
183439;2.0;63.0;6.0;183439;;;0
183515;0.0;0.0;0.0;183510;183472.0;183557.0;0
183582;2.0;63.0;6.0;183580;;;0
183642;0.0;1.0;0.0;183637;183599.0;183682.0;0
183679;2.0;61.0;6.0;183674;;;0
183764;0.0;1.0;0.0;183759;183723.0;183806.0;0
183801;2.0;61.0;6.0;183796;;;0
183892;0.0;1.0;0.0;183887;183849.0;183933.0;0
183929;2.0;61.0;6.0;183924;;;0
184017;0.0;1.0;0.0;184012;183975.0;184058.0;0
184053;2.0;61.0;6.0;184048;;;0
184140;0.0;1.0;0.0;184136;184099.0;184182.0;0
184177;2.0;61.0;6.0;184172;;;0
184266;0.0;0.0;0.0;184262;184224.0;184307.0;0
184303;2.0;61.0;6.0;184298;;;0
184391;0.0;3.0;0.0;184386;184349.0;184433.0;0
184427;2.0;60.0;6.0;184423;;;0
184518;0.0;0.0;0.0;184513;184475.0;184560.0;0
184555;2.0;61.0;6.0;184550;;;0
184645;0.0;4.0;0.0;184640;184602.0;184687.0;0
184682;2.0;61.0;6.0;184677;;;0
184771;0.0;3.0;0.0;184767;184729.0;184812.0;0
184844;2.0;62.0;6.0;184839;;;0
184896;0.0;3.0;0.0;184892;184854.0;184938.0;0
184932;2.0;60.0;6.0;184927;;;0
185022;0.0;0.0;0.0;185017;184980.0;185065.0;0
185092;2.0;63.0;6.0;185088;;;0
185152;0.0;0.0;0.0;185147;185108.0;185192.0;0
185188;2.0;60.0;6.0;185183;;;0
185273;0.0;4.0;0.0;185268;185232.0;185317.0;0
185310;2.0;61.0;6.0;185305;;;0
185406;0.0;4.0;0.0;185401;185361.0;185450.0;0
185484;2.0;62.0;6.0;185484;;;0
185540;0.0;4.0;0.0;185535;185495.0;185584.0;0
185674;0.0;0.0;0.0;185669;185629.0;185717.0;0
185711;2.0;61.0;6.0;185706;;;0
185803;0.0;3.0;0.0;185798;185760.0;185846.0;0
185840;2.0;60.0;6.0;185835;;;0
185934;0.0;0.0;0.0;185929;185890.0;185978.0;0
185970;2.0;61.0;6.0;185965;;;0
186067;0.0;1.0;0.0;186062;186022.0;186111.0;0
186199;0.0;4.0;0.0;186194;186155.0;186243.0;0
186277;2.0;62.0;6.0;186273;;;0
186331;0.0;4.0;0.0;186327;186287.0;186375.0;0
186465;0.0;0.0;0.0;186460;186420.0;186508.0;0
186502;2.0;61.0;6.0;186497;;;0
186537;2.0;62.0;6.0;186537;;;0
186594;0.0;0.0;0.0;186589;186551.0;186638.0;0
186631;2.0;61.0;6.0;186626;;;0
186675;2.0;62.0;6.0;186673;;;0
186726;0.0;1.0;0.0;186721;186682.0;186769.0;0
186763;2.0;61.0;6.0;186758;;;0
186855;0.0;3.0;0.0;186850;186812.0;186898.0;0
186892;2.0;60.0;6.0;186887;;;0
186941;2.0;62.0;6.0;186941;;;0
186986;0.0;4.0;0.0;186981;186942.0;187030.0;0
187023;2.0;61.0;6.0;187018;;;0
187118;0.0;0.0;0.0;187113;187074.0;187160.0;0
187154;2.0;60.0;6.0;187149;;;0
187246;0.0;4.0;0.0;187241;187203.0;187289.0;0
187283;2.0;61.0;6.0;187278;;;0
187377;0.0;4.0;0.0;187372;187333.0;187421.0;0
187437;2.0;63.0;6.0;187437;;;0
187509;0.0;4.0;0.0;187504;187465.0;187553.0;0
187547;2.0;61.0;6.0;187542;;;0
187641;0.0;4.0;0.0;187636;187597.0;187685.0;0
187775;0.0;0.0;0.0;187770;187730.0;187819.0;0
187812;2.0;61.0;6.0;187807;;;0
187908;0.0;0.0;0.0;187903;187863.0;187951.0;0
187944;2.0;61.0;6.0;187939;;;0
188038;0.0;3.0;0.0;188033;187994.0;188081.0;0
188076;2.0;60.0;6.0;188071;;;0
188168;0.0;0.0;0.0;188163;188124.0;188212.0;0
188249;2.0;62.0;6.0;188246;;;0
188300;0.0;4.0;0.0;188295;188256.0;188343.0;0
188431;0.0;3.0;0.0;188427;188387.0;188474.0;0
188468;2.0;60.0;6.0;188463;;;0
188502;2.0;62.0;6.0;188500;;;0
188560;0.0;0.0;0.0;188555;188517.0;188603.0;0
188596;2.0;61.0;6.0;188591;;;0
188691;0.0;0.0;0.0;188686;188647.0;188735.0;0
188727;2.0;61.0;6.0;188722;;;0
188771;2.0;62.0;6.0;188766;;;0
188823;0.0;0.0;0.0;188818;188779.0;188865.0;0
188860;2.0;60.0;6.0;188855;;;0
188951;0.0;3.0;0.0;188946;188908.0;188996.0;0
188988;2.0;61.0;6.0;188983;;;0
189086;0.0;1.0;0.0;189081;189041.0;189130.0;0
189122;2.0;61.0;6.0;189117;;;0
189219;0.0;4.0;0.0;189214;189174.0;189262.0;0
189254;2.0;61.0;6.0;189249;;;0
189291;2.0;62.0;6.0;189287;;;0
189349;0.0;1.0;0.0;189344;189305.0;189393.0;0
189385;2.0;61.0;6.0;189380;;;0
189481;0.0;0.0;0.0;189476;189437.0;189523.0;0
189518;2.0;60.0;6.0;189513;;;0
189609;0.0;3.0;0.0;189604;189566.0;189652.0;0
189739;0.0;4.0;0.0;189734;189695.0;189783.0;0
189776;2.0;61.0;6.0;189771;;;0
189872;0.0;1.0;0.0;189867;189827.0;189915.0;0
189909;2.0;61.0;6.0;189904;;;0
189953;2.0;62.0;6.0;189953;;;0
190003;0.0;4.0;0.0;189998;189959.0;190046.0;0
190041;2.0;61.0;6.0;190036;;;0
190134;0.0;1.0;0.0;190130;190090.0;190178.0;0
190171;2.0;61.0;6.0;190166;;;0
190266;0.0;0.0;0.0;190261;190222.0;190308.0;0
190304;2.0;60.0;6.0;190299;;;0
190394;0.0;0.0;0.0;190389;190351.0;190437.0;0
190430;2.0;61.0;6.0;190425;;;0
190471;2.0;62.0;6.0;190466;;;0
190524;0.0;4.0;0.0;190520;190480.0;190568.0;0
190656;0.0;0.0;0.0;190651;190612.0;190700.0;0
190789;0.0;0.0;0.0;190784;190744.0;190834.0;0
190826;2.0;61.0;6.0;190821;;;0
190925;0.0;1.0;0.0;190920;190879.0;190970.0;0
190962;2.0;61.0;6.0;190957;;;0
190996;2.0;63.0;6.0;190996;;;0
191060;0.0;1.0;0.0;191055;191015.0;191104.0;0
191096;2.0;61.0;6.0;191091;;;0
191194;0.0;4.0;0.0;191189;191149.0;191238.0;0
191326;0.0;3.0;0.0;191322;191282.0;191370.0;0
191364;2.0;61.0;6.0;191359;;;0
191402;2.0;62.0;6.0;191401;;;0
191459;0.0;4.0;0.0;191454;191414.0;191503.0;0
191496;2.0;61.0;6.0;191491;;;0
191591;0.0;4.0;0.0;191587;191547.0;191635.0;0
191628;2.0;61.0;6.0;191623;;;0
191723;0.0;4.0;0.0;191718;191679.0;191767.0;0
191760;2.0;61.0;6.0;191755;;;0
191800;2.0;63.0;6.0;191800;;;0
191855;0.0;1.0;0.0;191850;191811.0;191898.0;0
191893;2.0;61.0;6.0;191888;;;0
191986;0.0;4.0;0.0;191982;191942.0;192028.0;0
192024;2.0;61.0;6.0;192019;;;0
192114;0.0;0.0;0.0;192109;192071.0;192157.0;0
192151;2.0;61.0;6.0;192146;;;0
192244;0.0;1.0;0.0;192239;192200.0;192287.0;0
192281;2.0;61.0;6.0;192276;;;0
192375;0.0;0.0;0.0;192370;192331.0;192418.0;0
192410;2.0;60.0;6.0;192405;;;0
192506;0.0;0.0;0.0;192501;192462.0;192549.0;0
192542;2.0;61.0;6.0;192537;;;0
192637;0.0;0.0;0.0;192632;192593.0;192680.0;0
192673;2.0;60.0;6.0;192668;;;0
192709;2.0;62.0;6.0;192708;;;0
192768;0.0;3.0;0.0;192763;192724.0;192812.0;0
192805;2.0;60.0;6.0;192800;;;0
192901;0.0;4.0;0.0;192896;192856.0;192945.0;0
192938;2.0;61.0;6.0;192933;;;0
193034;0.0;3.0;0.0;193029;192989.0;193077.0;0
193070;2.0;60.0;6.0;193065;;;0
193163;0.0;3.0;0.0;193158;193120.0;193208.0;0
193239;2.0;62.0;6.0;193236;;;0
193300;0.0;4.0;0.0;193295;193254.0;193345.0;0
193337;2.0;61.0;6.0;193332;;;0
193437;0.0;0.0;0.0;193432;193391.0;193482.0;0
193474;2.0;60.0;6.0;193469;;;0
193511;2.0;62.0;6.0;193508;;;0
193572;0.0;4.0;0.0;193567;193527.0;193616.0;0
193609;2.0;61.0;6.0;193604;;;0
193706;0.0;0.0;0.0;193701;193661.0;193751.0;0
193743;2.0;61.0;6.0;193738;;;0
193843;0.0;1.0;0.0;193838;193797.0;193889.0;0
193879;2.0;61.0;6.0;193874;;;0
193923;2.0;62.0;6.0;193923;;;0
193981;0.0;0.0;0.0;193976;193935.0;194025.0;0
194018;2.0;60.0;6.0;194013;;;0
194114;0.0;3.0;0.0;194109;194069.0;194159.0;0
194150;2.0;61.0;6.0;194145;;;0
194251;0.0;1.0;0.0;194246;194205.0;194295.0;0
194384;0.0;3.0;0.0;194379;194339.0;194428.0;0
194518;0.0;4.0;0.0;194513;194473.0;194563.0;0
194556;2.0;61.0;6.0;194551;;;0
194597;2.0;62.0;6.0;194592;;;0
194653;0.0;1.0;0.0;194648;194608.0;194696.0;0
194690;2.0;61.0;6.0;194685;;;0
194783;0.0;3.0;0.0;194779;194739.0;194827.0;0
194821;2.0;60.0;6.0;194816;;;0
194915;0.0;4.0;0.0;194911;194871.0;194959.0;0
194953;2.0;61.0;6.0;194948;;;0
195048;0.0;4.0;0.0;195043;195003.0;195092.0;0
195085;2.0;61.0;6.0;195080;;;0
195124;2.0;62.0;6.0;195124;;;0
195182;0.0;0.0;0.0;195177;195137.0;195224.0;0
195219;2.0;60.0;6.0;195214;;;0
195250;2.0;62.0;6.0;195249;;;0
195310;0.0;3.0;0.0;195305;195267.0;195354.0;0
195347;2.0;60.0;6.0;195342;;;0
195442;0.0;0.0;0.0;195437;195398.0;195486.0;0
195478;2.0;61.0;6.0;195473;;;0
195526;2.0;62.0;6.0;195522;;;0
195575;0.0;1.0;0.0;195570;195530.0;195619.0;0
195612;2.0;61.0;6.0;195607;;;0
195707;0.0;0.0;0.0;195702;195663.0;195750.0;0
195744;2.0;61.0;6.0;195739;;;0
195783;2.0;62.0;6.0;195781;;;0
195838;0.0;3.0;0.0;195833;195794.0;195881.0;0
195875;2.0;61.0;6.0;195870;;;0
195968;0.0;3.0;0.0;195964;195924.0;196011.0;0
196006;2.0;60.0;6.0;196001;;;0
196098;0.0;4.0;0.0;196093;196054.0;196142.0;0
196135;2.0;61.0;6.0;196130;;;0
196230;0.0;3.0;0.0;196225;196186.0;196274.0;0
196363;0.0;3.0;0.0;196358;196318.0;196405.0;0
196490;0.0;4.0;0.0;196485;196447.0;196533.0;0
196526;2.0;61.0;6.0;196521;;;0
196619;0.0;4.0;0.0;196615;196576.0;196663.0;0
196656;2.0;61.0;6.0;196651;;;0
196752;0.0;4.0;0.0;196747;196707.0;196796.0;0
196789;2.0;61.0;6.0;196784;;;0
196885;0.0;4.0;0.0;196880;196840.0;196929.0;0
196922;2.0;61.0;6.0;196917;;;0
197017;0.0;0.0;0.0;197012;196973.0;197059.0;0
197054;2.0;60.0;6.0;197049;;;0
197145;0.0;0.0;0.0;197140;197102.0;197188.0;0
197276;0.0;4.0;0.0;197271;197232.0;197318.0;0
197403;0.0;3.0;0.0;197398;197360.0;197446.0;0
197440;2.0;60.0;6.0;197435;;;0
197533;0.0;4.0;0.0;197528;197489.0;197576.0;0
197570;2.0;61.0;6.0;197565;;;0
197664;0.0;4.0;0.0;197659;197620.0;197707.0;0
197701;2.0;61.0;6.0;197696;;;0
197736;2.0;63.0;6.0;197736;;;0
197794;0.0;1.0;0.0;197789;197750.0;197837.0;0
197854;2.0;63.0;6.0;197851;;;0
197923;0.0;4.0;0.0;197919;197880.0;197967.0;0
197960;2.0;61.0;6.0;197955;;;0
198001;2.0;62.0;6.0;198001;;;0
198055;0.0;0.0;0.0;198050;198011.0;198099.0;0
198091;2.0;61.0;6.0;198086;;;0
198188;0.0;2.0;0.0;198188;198143.0;198229.0;0
198222;2.0;61.0;6.0;198217;;;0
198312;0.0;0.0;0.0;198307;198270.0;198355.0;0
198349;2.0;61.0;6.0;198344;;;0
198441;0.0;4.0;0.0;198436;198398.0;198484.0;0
198572;0.0;0.0;0.0;198567;198528.0;198615.0;0
198609;2.0;61.0;6.0;198604;;;0
198703;0.0;0.0;0.0;198698;198659.0;198746.0;0
198740;2.0;61.0;6.0;198735;;;0
198768;2.0;63.0;6.0;198765;;;0
198833;0.0;3.0;0.0;198828;198789.0;198876.0;0
198870;2.0;60.0;6.0;198865;;;0
198964;0.0;4.0;0.0;198960;198920.0;199008.0;0
199001;2.0;61.0;6.0;198996;;;0
199032;2.0;63.0;6.0;199030;;;0
199097;0.0;4.0;0.0;199093;199052.0;199141.0;0
199133;2.0;61.0;6.0;199128;;;0
199229;0.0;4.0;0.0;199225;199185.0;199272.0;0
199266;2.0;61.0;6.0;199261;;;0
199359;0.0;3.0;0.0;199355;199315.0;199402.0;0
199396;2.0;61.0;6.0;199391;;;0
199489;0.0;4.0;0.0;199484;199445.0;199533.0;0
199622;0.0;4.0;0.0;199617;199577.0;199665.0;0
199659;2.0;61.0;6.0;199654;;;0
199752;0.0;0.0;0.0;199747;199708.0;199795.0;0
199882;0.0;4.0;0.0;199878;199838.0;199925.0;0
199919;2.0;61.0;6.0;199914;;;0
199963;2.0;62.0;6.0;199959;;;0
200012;0.0;0.0;0.0;200007;199968.0;200055.0;0
200046;2.0;61.0;6.0;200041;;;0
200142;0.0;0.0;0.0;200137;200098.0;200183.0;0
200178;2.0;60.0;6.0;200173;;;0
200266;0.0;3.0;0.0;200261;200224.0;200308.0;0
200304;2.0;60.0;6.0;200299;;;0
200394;0.0;3.0;0.0;200390;200351.0;200436.0;0
200431;2.0;60.0;6.0;200426;;;0
200466;2.0;62.0;6.0;200461;;;0
200520;0.0;3.0;0.0;200515;200478.0;200562.0;0
200648;0.0;3.0;0.0;200643;200605.0;200690.0;0
200686;2.0;60.0;6.0;200681;;;0
200774;0.0;3.0;0.0;200770;200732.0;200817.0;0
200904;0.0;0.0;0.0;200899;200860.0;200946.0;0
200940;2.0;61.0;6.0;200935;;;0
201032;0.0;3.0;0.0;201027;200989.0;201074.0;0
201070;2.0;60.0;6.0;201065;;;0
201160;0.0;4.0;0.0;201155;201117.0;201203.0;0
201291;0.0;0.0;0.0;201286;201247.0;201333.0;0
201418;0.0;0.0;0.0;201413;201375.0;201461.0;0
201455;2.0;61.0;6.0;201450;;;0
201549;0.0;0.0;0.0;201544;201505.0;201591.0;0
201585;2.0;61.0;6.0;201580;;;0
201677;0.0;3.0;0.0;201672;201634.0;201720.0;0
201715;2.0;61.0;6.0;201710;;;0
201808;0.0;4.0;0.0;201803;201764.0;201852.0;0
201940;0.0;0.0;0.0;201935;201896.0;201983.0;0
202070;0.0;0.0;0.0;202065;202026.0;202113.0;0
202106;2.0;61.0;6.0;202101;;;0
202201;0.0;1.0;0.0;202196;202157.0;202245.0;0
202238;2.0;61.0;6.0;202233;;;0
202278;2.0;62.0;6.0;202277;;;0
202333;0.0;0.0;0.0;202328;202289.0;202375.0;0
202370;2.0;61.0;6.0;202365;;;0
202411;2.0;62.0;6.0;202409;;;0
202461;0.0;3.0;0.0;202457;202418.0;202504.0;0
202499;2.0;61.0;6.0;202494;;;0
202536;2.0;62.0;6.0;202532;;;0
202592;0.0;4.0;0.0;202587;202548.0;202636.0;0
202629;2.0;61.0;6.0;202624;;;0
202665;2.0;63.0;6.0;202662;;;0
202724;0.0;4.0;0.0;202719;202680.0;202767.0;0
202761;2.0;61.0;6.0;202756;;;0
202794;2.0;63.0;6.0;202791;;;0
202853;0.0;3.0;0.0;202848;202810.0;202896.0;0
202983;0.0;0.0;0.0;202978;202939.0;203026.0;0
203020;2.0;61.0;6.0;203015;;;0
203053;2.0;63.0;6.0;203053;;;0
203114;0.0;0.0;0.0;203109;203070.0;203158.0;0
203151;2.0;61.0;6.0;203146;;;0
203247;0.0;0.0;0.0;203242;203202.0;203291.0;0
203284;2.0;60.0;6.0;203279;;;0
203380;0.0;3.0;0.0;203376;203335.0;203422.0;0
203508;0.0;3.0;0.0;203503;203465.0;203552.0;0
203544;2.0;60.0;6.0;203539;;;0
203641;0.0;0.0;0.0;203636;203596.0;203685.0;0
203677;2.0;60.0;6.0;203672;;;0
203775;0.0;3.0;0.0;203770;203730.0;203819.0;0
203812;2.0;60.0;6.0;203807;;;0
203908;0.0;3.0;0.0;203903;203863.0;203952.0;0
204041;0.0;4.0;0.0;204037;203996.0;204084.0;0
204172;0.0;3.0;0.0;204167;204128.0;204215.0;0
204208;2.0;60.0;6.0;204203;;;0
204302;0.0;3.0;0.0;204298;204258.0;204346.0;0
204339;2.0;60.0;6.0;204334;;;0
204435;0.0;3.0;0.0;204430;204390.0;204479.0;0
204472;2.0;60.0;6.0;204467;;;0
204567;0.0;4.0;0.0;204562;204523.0;204610.0;0
204604;2.0;61.0;6.0;204599;;;0
204697;0.0;3.0;0.0;204692;204653.0;204741.0;0
204734;2.0;60.0;6.0;204729;;;0
204771;2.0;62.0;6.0;204768;;;0
204831;0.0;0.0;0.0;204826;204786.0;204875.0;0
204868;2.0;61.0;6.0;204863;;;0
204963;0.0;3.0;0.0;204958;204919.0;205005.0;0
205000;2.0;60.0;6.0;204995;;;0
205090;0.0;3.0;0.0;205086;205047.0;205133.0;0
205127;2.0;60.0;6.0;205122;;;0
205221;0.0;3.0;0.0;205216;205177.0;205265.0;0
205259;2.0;60.0;6.0;205254;;;0
205353;0.0;3.0;0.0;205348;205309.0;205397.0;0
205389;2.0;60.0;6.0;205384;;;0
205486;0.0;3.0;0.0;205481;205441.0;205529.0;0
205523;2.0;60.0;6.0;205518;;;0
205617;0.0;3.0;0.0;205613;205573.0;205661.0;0
205654;2.0;60.0;6.0;205649;;;0
205750;0.0;0.0;0.0;205745;205705.0;205794.0;0
205787;2.0;60.0;6.0;205782;;;0
205882;0.0;0.0;0.0;205877;205838.0;205925.0;0
205918;2.0;60.0;6.0;205913;;;0
206013;0.0;3.0;0.0;206008;205969.0;206055.0;0
206050;2.0;60.0;6.0;206045;;;0
206139;0.0;3.0;0.0;206134;206097.0;206182.0;0
206177;2.0;60.0;6.0;206172;;;0
206208;2.0;62.0;6.0;206208;;;0
206268;0.0;3.0;0.0;206263;206225.0;206311.0;0
206305;2.0;60.0;6.0;206300;;;0
206397;0.0;3.0;0.0;206392;206354.0;206440.0;0
206434;2.0;60.0;6.0;206429;;;0
206526;0.0;4.0;0.0;206521;206483.0;206570.0;0
206599;2.0;62.0;6.0;206599;;;0
206658;0.0;0.0;0.0;206653;206614.0;206701.0;0
206695;2.0;60.0;6.0;206690;;;0
206730;2.0;62.0;6.0;206730;;;0
206787;0.0;3.0;0.0;206782;206744.0;206830.0;0
206824;2.0;60.0;6.0;206819;;;0
206916;0.0;3.0;0.0;206911;206873.0;206960.0;0
206954;2.0;61.0;6.0;206949;;;0
206990;2.0;62.0;6.0;206990;;;0
207049;0.0;3.0;0.0;207044;207004.0;207092.0;0
207086;2.0;60.0;6.0;207081;;;0
207120;2.0;62.0;6.0;207117;;;0
207178;0.0;4.0;0.0;207173;207135.0;207222.0;0
207310;0.0;0.0;0.0;207305;207266.0;207353.0;0
207439;0.0;0.0;0.0;207434;207396.0;207482.0;0
207475;2.0;61.0;6.0;207470;;;0
207570;0.0;4.0;0.0;207565;207526.0;207612.0;0
