292;0.0;1.0;0.0;288;262.0;323.0;0
329;2.0;61.0;6.0;329;;;0
387;0.0;1.0;0.0;383;355.0;415.0;0
472;0.0;1.0;0.0;468;443.0;499.0;0
553;0.0;1.0;0.0;550;526.0;570.0;0
606;0.0;1.0;0.0;602;588.0;636.0;0
697;0.0;1.0;0.0;694;666.0;717.0;0
759;0.0;1.0;0.0;755;738.0;791.0;0
855;0.0;1.0;0.0;852;823.0;884.0;0
943;0.0;1.0;0.0;940;913.0;970.0;0
1025;0.0;1.0;0.0;1022;997.0;1042.0;0
1078;0.0;1.0;0.0;1075;1060.0;1107.0;0
1167;0.0;1.0;0.0;1164;1137.0;1196.0;0
1256;0.0;1.0;0.0;1253;1226.0;1283.0;0
1338;0.0;1.0;0.0;1335;1310.0;1355.0;0
1391;0.0;1.0;0.0;1388;1373.0;1421.0;0
1483;0.0;1.0;0.0;1480;1452.0;1502.0;0
1541;0.0;1.0;0.0;1538;1521.0;1571.0;0
1633;0.0;1.0;0.0;1630;1602.0;1661.0;0
1717;0.0;1.0;0.0;1714;1689.0;1744.0;0
1799;0.0;1.0;0.0;1795;1771.0;1826.0;0
1880;0.0;1.0;0.0;1877;1853.0;1898.0;0
1936;0.0;1.0;0.0;1933;1917.0;1964.0;0
2022;0.0;1.0;0.0;2019;1993.0;2044.0;0
2088;0.0;1.0;0.0;2085;2066.0;2119.0;0
2131;2.0;61.0;6.0;2126;;;0
2182;0.0;1.0;0.0;2179;2150.0;2211.0;0
2224;2.0;61.0;6.0;2224;;;0
2270;0.0;1.0;0.0;2266;2240.0;2297.0;0
2351;0.0;1.0;0.0;2347;2324.0;2377.0;0
2431;0.0;1.0;0.0;2427;2404.0;2458.0;0
2512;0.0;1.0;0.0;2509;2485.0;2533.0;0
2576;0.0;1.0;0.0;2573;2554.0;2604.0;0
2662;0.0;1.0;0.0;2659;2633.0;2689.0;0
2745;0.0;1.0;0.0;2742;2717.0;2762.0;0
2796;0.0;1.0;0.0;2793;2779.0;2827.0;0
2839;2.0;62.0;6.0;2839;;;0
2890;0.0;1.0;0.0;2887;2858.0;2918.0;0
2976;0.0;1.0;0.0;2973;2947.0;3003.0;0
3057;0.0;1.0;0.0;3054;3030.0;3074.0;0
3109;0.0;1.0;0.0;3106;3091.0;3139.0;0
3201;0.0;1.0;0.0;3197;3170.0;3222.0;0
3265;0.0;1.0;0.0;3261;3243.0;3281.0;0
3313;0.0;1.0;0.0;3310;3297.0;3332.0;0
3371;0.0;1.0;0.0;3368;3351.0;3388.0;0
3422;0.0;1.0;0.0;3419;3405.0;3446.0;0
3496;0.0;1.0;0.0;3492;3471.0;3525.0;0
3583;0.0;1.0;0.0;3580;3554.0;3611.0;0
3669;0.0;1.0;0.0;3666;3640.0;3696.0;0
3750;0.0;1.0;0.0;3747;3723.0;3768.0;0
3804;0.0;1.0;0.0;3801;3786.0;3835.0;0
3897;0.0;1.0;0.0;3894;3866.0;3926.0;0
3986;0.0;1.0;0.0;3982;3956.0;4009.0;0
4056;0.0;1.0;0.0;4053;4032.0;4085.0;0
4145;0.0;1.0;0.0;4141;4115.0;4173.0;0
4229;0.0;1.0;0.0;4226;4201.0;4256.0;0
4311;0.0;1.0;0.0;4308;4283.0;4337.0;0
4391;0.0;1.0;0.0;4387;4364.0;4411.0;0
4451;0.0;1.0;0.0;4448;4431.0;4481.0;0
4541;0.0;1.0;0.0;4538;4511.0;4561.0;0
4601;0.0;1.0;0.0;4598;4581.0;4631.0;0
4643;2.0;62.0;6.0;4638;;;0
4693;0.0;1.0;0.0;4690;4662.0;4721.0;0
4777;0.0;1.0;0.0;4774;4749.0;4805.0;0
4861;0.0;1.0;0.0;4857;4833.0;4878.0;0
4914;0.0;1.0;0.0;4910;4896.0;4943.0;0
5003;0.0;1.0;0.0;4999;4973.0;5031.0;0
5087;0.0;1.0;0.0;5083;5059.0;5114.0;0
5170;0.0;1.0;0.0;5167;5142.0;5197.0;0
5251;0.0;1.0;0.0;5248;5224.0;5273.0;0
5318;0.0;1.0;0.0;5314;5295.0;5348.0;0
5408;0.0;1.0;0.0;5404;5378.0;5436.0;0
5493;0.0;1.0;0.0;5490;5464.0;5519.0;0
5573;0.0;1.0;0.0;5570;5546.0;5590.0;0
5625;0.0;1.0;0.0;5622;5607.0;5655.0;0
5716;0.0;1.0;0.0;5712;5685.0;5746.0;0
5807;0.0;1.0;0.0;5804;5776.0;5834.0;0
5890;0.0;1.0;0.0;5887;5862.0;5917.0;0
5971;0.0;1.0;0.0;5968;5944.0;5998.0;0
6053;0.0;1.0;0.0;6049;6025.0;6080.0;0
6134;0.0;1.0;0.0;6131;6107.0;6160.0;0
6214;0.0;1.0;0.0;6211;6187.0;6231.0;0
6267;0.0;1.0;0.0;6264;6249.0;6297.0;0
6358;0.0;1.0;0.0;6355;6327.0;6388.0;0
6449;0.0;1.0;0.0;6446;6418.0;6466.0;0
6501;0.0;1.0;0.0;6498;6483.0;6532.0;0
6534;2.0;61.0;6.0;6529;;;0
6594;0.0;1.0;0.0;6591;6563.0;6615.0;0
6659;0.0;1.0;0.0;6656;6637.0;6676.0;0
6711;0.0;1.0;0.0;6708;6693.0;6741.0;0
6743;2.0;61.0;6.0;6740;;;0
6803;0.0;1.0;0.0;6800;6772.0;6831.0;0
6889;0.0;1.0;0.0;6886;6860.0;6916.0;0
6971;0.0;1.0;0.0;6968;6943.0;6988.0;0
7023;0.0;1.0;0.0;7020;7005.0;7054.0;0
7116;0.0;1.0;0.0;7112;7085.0;7144.0;0
7202;0.0;1.0;0.0;7199;7173.0;7229.0;0
7284;0.0;1.0;0.0;7280;7256.0;7301.0;0
7336;0.0;1.0;0.0;7333;7318.0;7367.0;0
7429;0.0;1.0;0.0;7426;7398.0;7458.0;0
7516;0.0;1.0;0.0;7513;7487.0;7543.0;0
7597;0.0;1.0;0.0;7594;7570.0;7614.0;0
7649;0.0;1.0;0.0;7646;7631.0;7680.0;0
7680;2.0;61.0;6.0;7675;;;0
7742;0.0;1.0;0.0;7739;7711.0;7771.0;0
7777;2.0;61.0;6.0;7772;;;0
7830;0.0;1.0;0.0;7826;7800.0;7851.0;0
7893;0.0;1.0;0.0;7890;7872.0;7915.0;0
7961;0.0;1.0;0.0;7957;7938.0;7990.0;0
8050;0.0;1.0;0.0;8046;8020.0;8079.0;0
8138;0.0;1.0;0.0;8134;8108.0;8158.0;0
8199;0.0;1.0;0.0;8196;8178.0;8230.0;0
8293;0.0;1.0;0.0;8290;8261.0;8322.0;0
8328;2.0;61.0;6.0;8324;;;0
8381;0.0;1.0;0.0;8378;8351.0;8408.0;0
8464;0.0;1.0;0.0;8460;8436.0;8490.0;0
8543;0.0;1.0;0.0;8540;8516.0;8570.0;0
8624;0.0;1.0;0.0;8621;8597.0;8651.0;0
8666;2.0;61.0;6.0;8666;;;0
8706;0.0;1.0;0.0;8703;8678.0;8733.0;0
8741;2.0;61.0;6.0;8736;;;0
8787;0.0;1.0;0.0;8784;8760.0;8804.0;0
8840;0.0;1.0;0.0;8837;8822.0;8870.0;0
8931;0.0;1.0;0.0;8928;8900.0;8960.0;0
8967;2.0;61.0;6.0;8964;;;0
9020;0.0;1.0;0.0;9017;8990.0;9047.0;0
9055;2.0;61.0;6.0;9050;;;0
9103;0.0;1.0;0.0;9100;9075.0;9130.0;0
9184;0.0;1.0;0.0;9181;9157.0;9211.0;0
9265;0.0;1.0;0.0;9262;9238.0;9292.0;0
9299;2.0;61.0;6.0;9295;;;0
9348;0.0;1.0;0.0;9344;9320.0;9375.0;0
9430;0.0;1.0;0.0;9426;9402.0;9457.0;0
9511;0.0;1.0;0.0;9507;9484.0;9537.0;0
9591;0.0;1.0;0.0;9588;9564.0;9618.0;0
9674;0.0;1.0;0.0;9671;9646.0;9701.0;0
9708;2.0;61.0;6.0;9703;;;0
9757;0.0;1.0;0.0;9754;9729.0;9783.0;0
9837;0.0;1.0;0.0;9834;9810.0;9864.0;0
9918;0.0;1.0;0.0;9915;9891.0;9945.0;0
10001;0.0;1.0;0.0;9997;9973.0;10024.0;0
10072;0.0;1.0;0.0;10068;10048.0;10100.0;0
10114;2.0;62.0;6.0;10114;;;0
10157;0.0;1.0;0.0;10153;10128.0;10185.0;0
10189;2.0;61.0;6.0;10185;;;0
10241;0.0;1.0;0.0;10237;10213.0;10268.0;0
10324;0.0;1.0;0.0;10321;10296.0;10351.0;0
10407;0.0;1.0;0.0;10404;10379.0;10434.0;0
10488;0.0;1.0;0.0;10484;10461.0;10505.0;0
10540;0.0;1.0;0.0;10537;10522.0;10570.0;0
10572;2.0;61.0;6.0;10567;;;0
10631;0.0;1.0;0.0;10628;10600.0;10661.0;0
10723;0.0;1.0;0.0;10720;10692.0;10750.0;0
10806;0.0;1.0;0.0;10803;10778.0;10833.0;0
10888;0.0;1.0;0.0;10885;10860.0;10915.0;0
10929;2.0;61.0;6.0;10929;;;0
10971;0.0;1.0;0.0;10968;10943.0;10998.0;0
11053;0.0;1.0;0.0;11050;11025.0;11070.0;0
11105;0.0;1.0;0.0;11102;11087.0;11135.0;0
11197;0.0;1.0;0.0;11193;11166.0;11227.0;0
11231;2.0;61.0;6.0;11226;;;0
11288;0.0;1.0;0.0;11285;11257.0;11315.0;0
11371;0.0;1.0;0.0;11368;11343.0;11398.0;0
11452;0.0;1.0;0.0;11449;11425.0;11472.0;0
11514;0.0;1.0;0.0;11511;11493.0;11545.0;0
11557;2.0;61.0;6.0;11556;;;0
11607;0.0;1.0;0.0;11604;11576.0;11627.0;0
11667;0.0;1.0;0.0;11663;11647.0;11697.0;0
11758;0.0;1.0;0.0;11754;11727.0;11785.0;0
11841;0.0;1.0;0.0;11837;11813.0;11868.0;0
11922;0.0;1.0;0.0;11919;11895.0;11949.0;0
12003;0.0;1.0;0.0;12000;11976.0;12029.0;0
12082;0.0;1.0;0.0;12079;12055.0;12108.0;0
12162;0.0;1.0;0.0;12158;12135.0;12179.0;0
12214;0.0;1.0;0.0;12211;12196.0;12244.0;0
12305;0.0;1.0;0.0;12302;12274.0;12333.0;0
12389;0.0;1.0;0.0;12386;12361.0;12416.0;0
12425;2.0;61.0;6.0;12420;;;0
12470;0.0;1.0;0.0;12467;12443.0;12497.0;0
12551;0.0;1.0;0.0;12548;12524.0;12578.0;0
12584;2.0;61.0;6.0;12580;;;0
12633;0.0;1.0;0.0;12630;12605.0;12659.0;0
12713;0.0;1.0;0.0;12709;12686.0;12739.0;0
12792;0.0;1.0;0.0;12789;12765.0;12819.0;0
12874;0.0;1.0;0.0;12870;12846.0;12891.0;0
12926;0.0;1.0;0.0;12923;12908.0;12955.0;0
12960;2.0;61.0;6.0;12955;;;0
13015;0.0;1.0;0.0;13012;12985.0;13042.0;0
13098;0.0;1.0;0.0;13095;13070.0;13125.0;0
13181;0.0;1.0;0.0;13177;13153.0;13208.0;0
13263;0.0;1.0;0.0;13259;13235.0;13280.0;0
13315;0.0;1.0;0.0;13312;13297.0;13344.0;0
13404;0.0;1.0;0.0;13401;13374.0;13433.0;0
13491;0.0;1.0;0.0;13488;13462.0;13518.0;0
13524;2.0;61.0;6.0;13521;;;0
13574;0.0;1.0;0.0;13570;13546.0;13600.0;0
13653;0.0;1.0;0.0;13649;13626.0;13670.0;0
13706;0.0;1.0;0.0;13703;13688.0;13735.0;0
13794;0.0;1.0;0.0;13791;13764.0;13815.0;0
13857;0.0;1.0;0.0;13854;13836.0;13887.0;0
13949;0.0;1.0;0.0;13945;13918.0;13976.0;0
14031;0.0;1.0;0.0;14028;14003.0;14058.0;0
14113;0.0;1.0;0.0;14110;14085.0;14140.0;0
14195;0.0;1.0;0.0;14191;14167.0;14213.0;0
14249;0.0;1.0;0.0;14245;14231.0;14279.0;0
14339;0.0;1.0;0.0;14336;14309.0;14367.0;0
14381;2.0;62.0;6.0;14381;;;0
14425;0.0;1.0;0.0;14422;14396.0;14452.0;0
14508;0.0;1.0;0.0;14504;14480.0;14534.0;0
14587;0.0;1.0;0.0;14584;14560.0;14614.0;0
14668;0.0;1.0;0.0;14664;14641.0;14689.0;0
14732;0.0;1.0;0.0;14729;14710.0;14748.0;0
14782;0.0;1.0;0.0;14779;14765.0;14811.0;0
14871;0.0;1.0;0.0;14867;14841.0;14899.0;0
14957;0.0;1.0;0.0;14954;14928.0;14980.0;0
15026;0.0;1.0;0.0;15023;15003.0;15056.0;0
15117;0.0;1.0;0.0;15114;15086.0;15145.0;0
15151;2.0;61.0;6.0;15146;;;0
15201;0.0;1.0;0.0;15197;15173.0;15228.0;0
15283;0.0;1.0;0.0;15280;15255.0;15310.0;0
15365;0.0;1.0;0.0;15362;15337.0;15392.0;0
15447;0.0;1.0;0.0;15444;15419.0;15474.0;0
15528;0.0;1.0;0.0;15524;15501.0;15554.0;0
15608;0.0;1.0;0.0;15605;15581.0;15635.0;0
15690;0.0;1.0;0.0;15687;15662.0;15717.0;0
15772;0.0;1.0;0.0;15769;15744.0;15799.0;0
15853;0.0;1.0;0.0;15849;15826.0;15870.0;0
15905;0.0;1.0;0.0;15902;15887.0;15936.0;0
15998;0.0;1.0;0.0;15995;15967.0;16027.0;0
16030;2.0;61.0;6.0;16026;;;0
16086;0.0;1.0;0.0;16083;16056.0;16113.0;0
16120;2.0;61.0;6.0;16116;;;0
16169;0.0;1.0;0.0;16165;16141.0;16195.0;0
16249;0.0;1.0;0.0;16246;16222.0;16266.0;0
16302;0.0;1.0;0.0;16298;16284.0;16333.0;0
16395;0.0;1.0;0.0;16392;16364.0;16424.0;0
16430;2.0;61.0;6.0;16425;;;0
16482;0.0;1.0;0.0;16478;16453.0;16509.0;0
16519;2.0;61.0;6.0;16514;;;0
16563;0.0;1.0;0.0;16560;16536.0;16590.0;0
16645;0.0;1.0;0.0;16642;16617.0;16672.0;0
16727;0.0;1.0;0.0;16723;16699.0;16753.0;0
16806;0.0;1.0;0.0;16802;16779.0;16832.0;0
16885;0.0;1.0;0.0;16882;16858.0;16911.0;0
16965;0.0;1.0;0.0;16962;16938.0;16992.0;0
17046;0.0;1.0;0.0;17043;17019.0;17071.0;0
17123;0.0;1.0;0.0;17120;17097.0;17149.0;0
17202;0.0;1.0;0.0;17199;17175.0;17228.0;0
17282;0.0;1.0;0.0;17278;17255.0;17309.0;0
17363;0.0;1.0;0.0;17360;17336.0;17380.0;0
17415;0.0;1.0;0.0;17412;17397.0;17444.0;0
17447;2.0;62.0;6.0;17443;;;0
17503;0.0;1.0;0.0;17499;17473.0;17522.0;0
17562;0.0;1.0;0.0;17559;17542.0;17592.0;0
17654;0.0;1.0;0.0;17651;17623.0;17682.0;0
17689;2.0;62.0;6.0;17685;;;0
17740;0.0;1.0;0.0;17736;17711.0;17767.0;0
17821;0.0;1.0;0.0;17817;17794.0;17847.0;0
17901;0.0;1.0;0.0;17898;17874.0;17918.0;0
17954;0.0;1.0;0.0;17950;17936.0;17984.0;0
17989;2.0;62.0;6.0;17987;;;0
18045;0.0;1.0;0.0;18041;18014.0;18073.0;0
18129;0.0;1.0;0.0;18125;18101.0;18156.0;0
18210;0.0;1.0;0.0;18206;18183.0;18236.0;0
18290;0.0;1.0;0.0;18287;18263.0;18307.0;0
18343;0.0;1.0;0.0;18339;18325.0;18373.0;0
18433;0.0;1.0;0.0;18430;18403.0;18452.0;0
18492;0.0;1.0;0.0;18489;18472.0;18522.0;0
18524;2.0;61.0;6.0;18519;;;0
18584;0.0;1.0;0.0;18581;18553.0;18612.0;0
18670;0.0;1.0;0.0;18667;18641.0;18690.0;0
18732;0.0;1.0;0.0;18729;18711.0;18758.0;0
18810;0.0;1.0;0.0;18807;18784.0;18839.0;0
18851;2.0;62.0;6.0;18851;;;0
18897;0.0;1.0;0.0;18894;18868.0;18925.0;0
18982;0.0;1.0;0.0;18979;18953.0;19009.0;0
19064;0.0;1.0;0.0;19061;19036.0;19090.0;0
19144;0.0;1.0;0.0;19140;19117.0;19170.0;0
19177;2.0;62.0;6.0;19173;;;0
19224;0.0;1.0;0.0;19221;19197.0;19251.0;0
19307;0.0;1.0;0.0;19304;19279.0;19334.0;0
19340;2.0;61.0;6.0;19335;;;0
19389;0.0;1.0;0.0;19386;19361.0;19415.0;0
19469;0.0;1.0;0.0;19466;19442.0;19496.0;0
19550;0.0;1.0;0.0;19547;19523.0;19577.0;0
19632;0.0;1.0;0.0;19629;19604.0;19659.0;0
19714;0.0;1.0;0.0;19711;19686.0;19740.0;0
19794;0.0;1.0;0.0;19791;19767.0;19821.0;0
19875;0.0;1.0;0.0;19872;19848.0;19892.0;0
19928;0.0;1.0;0.0;19924;19910.0;19958.0;0
20020;0.0;1.0;0.0;20016;19989.0;20048.0;0
20105;0.0;1.0;0.0;20102;20076.0;20132.0;0
20187;0.0;1.0;0.0;20184;20159.0;20214.0;0
20227;2.0;62.0;6.0;20227;;;0
20269;0.0;1.0;0.0;20266;20241.0;20296.0;0
20351;0.0;1.0;0.0;20348;20323.0;20377.0;0
20431;0.0;1.0;0.0;20428;20404.0;20448.0;0
20484;0.0;1.0;0.0;20481;20466.0;20514.0;0
20574;0.0;1.0;0.0;20571;20544.0;20603.0;0
20662;0.0;1.0;0.0;20658;20632.0;20689.0;0
20744;0.0;1.0;0.0;20740;20716.0;20770.0;0
20824;0.0;1.0;0.0;20821;20797.0;20851.0;0
20856;2.0;62.0;6.0;20851;;;0
20905;0.0;1.0;0.0;20901;20878.0;20922.0;0
20957;0.0;1.0;0.0;20954;20939.0;20987.0;0
21048;0.0;1.0;0.0;21045;21017.0;21075.0;0
21081;2.0;62.0;6.0;21076;;;0
21131;0.0;1.0;0.0;21128;21103.0;21158.0;0
21165;2.0;62.0;6.0;21161;;;0
21212;0.0;1.0;0.0;21209;21185.0;21239.0;0
21295;0.0;1.0;0.0;21292;21267.0;21322.0;0
21329;2.0;61.0;6.0;21325;;;0
21378;0.0;1.0;0.0;21375;21350.0;21404.0;0
21458;0.0;1.0;0.0;21454;21431.0;21484.0;0
21538;0.0;1.0;0.0;21534;21511.0;21565.0;0
21620;0.0;1.0;0.0;21616;21592.0;21647.0;0
21701;0.0;1.0;0.0;21698;21674.0;21728.0;0
21782;0.0;1.0;0.0;21778;21755.0;21808.0;0
21862;0.0;1.0;0.0;21859;21835.0;21889.0;0
21944;0.0;1.0;0.0;21941;21916.0;21971.0;0
22026;0.0;1.0;0.0;22023;21998.0;22053.0;0
22108;0.0;1.0;0.0;22104;22080.0;22125.0;0
22160;0.0;1.0;0.0;22157;22142.0;22186.0;0
22239;0.0;1.0;0.0;22235;22212.0;22261.0;0
22305;0.0;1.0;0.0;22302;22283.0;22335.0;0
22396;0.0;1.0;0.0;22392;22365.0;22426.0;0
22438;2.0;61.0;6.0;22438;;;0
22487;0.0;1.0;0.0;22484;22456.0;22514.0;0
22523;2.0;61.0;6.0;22518;;;0
22570;0.0;1.0;0.0;22567;22542.0;22598.0;0
22654;0.0;1.0;0.0;22651;22626.0;22682.0;0
22688;2.0;61.0;6.0;22684;;;0
22738;0.0;1.0;0.0;22735;22710.0;22765.0;0
22819;0.0;1.0;0.0;22816;22792.0;22836.0;0
22872;0.0;1.0;0.0;22869;22854.0;22902.0;0
22904;2.0;61.0;6.0;22899;;;0
22964;0.0;1.0;0.0;22961;22933.0;22995.0;0
23057;0.0;1.0;0.0;23053;23026.0;23077.0;0
23118;0.0;1.0;0.0;23115;23097.0;23140.0;0
23186;0.0;1.0;0.0;23183;23163.0;23218.0;0
23227;2.0;62.0;6.0;23227;;;0
23283;0.0;1.0;0.0;23280;23250.0;23313.0;0
23375;0.0;1.0;0.0;23371;23344.0;23395.0;0
23436;0.0;1.0;0.0;23432;23415.0;23463.0;0
23467;2.0;62.0;6.0;23463;;;0
23518;0.0;1.0;0.0;23514;23490.0;23548.0;0
23553;2.0;62.0;6.0;23548;;;0
23610;0.0;1.0;0.0;23606;23579.0;23639.0;0
23649;2.0;62.0;6.0;23649;;;0
23697;0.0;1.0;0.0;23694;23668.0;23724.0;0
23730;2.0;61.0;6.0;23725;;;0
23780;0.0;1.0;0.0;23777;23752.0;23807.0;0
23863;0.0;1.0;0.0;23860;23835.0;23891.0;0
23898;2.0;61.0;6.0;23893;;;0
23947;0.0;1.0;0.0;23944;23919.0;23975.0;0
24031;0.0;1.0;0.0;24028;24003.0;24058.0;0
24113;0.0;1.0;0.0;24110;24085.0;24133.0;0
24175;0.0;1.0;0.0;24172;24154.0;24205.0;0
24265;0.0;1.0;0.0;24262;24235.0;24295.0;0
24356;0.0;1.0;0.0;24352;24325.0;24376.0;0
24417;0.0;1.0;0.0;24414;24396.0;24449.0;0
24463;2.0;61.0;6.0;24461;;;0
24514;0.0;1.0;0.0;24510;24481.0;24544.0;0
24550;2.0;61.0;6.0;24545;;;0
24604;0.0;1.0;0.0;24601;24574.0;24632.0;0
24640;2.0;61.0;6.0;24635;;;0
24689;0.0;1.0;0.0;24686;24660.0;24716.0;0
24772;0.0;1.0;0.0;24769;24744.0;24793.0;0
24837;0.0;1.0;0.0;24833;24815.0;24863.0;0
24917;0.0;1.0;0.0;24913;24890.0;24947.0;0
24950;2.0;61.0;6.0;24949;;;0
25008;0.0;1.0;0.0;25005;24977.0;25030.0;0
25074;0.0;1.0;0.0;25070;25052.0;25106.0;0
25170;0.0;1.0;0.0;25167;25138.0;25200.0;0
25260;0.0;1.0;0.0;25256;25230.0;25288.0;0
25345;0.0;1.0;0.0;25342;25316.0;25372.0;0
25428;0.0;1.0;0.0;25424;25400.0;25452.0;0
25501;0.0;1.0;0.0;25497;25476.0;25530.0;0
25534;2.0;61.0;6.0;25529;;;0
25589;0.0;1.0;0.0;25586;25559.0;25617.0;0
25625;2.0;62.0;6.0;25622;;;0
25674;0.0;1.0;0.0;25671;25645.0;25694.0;0
25734;0.0;1.0;0.0;25731;25714.0;25765.0;0
25828;0.0;1.0;0.0;25825;25796.0;25857.0;0
25864;2.0;62.0;6.0;25859;;;0
25917;0.0;1.0;0.0;25914;25887.0;25945.0;0
26002;0.0;1.0;0.0;25998;25973.0;26029.0;0
26083;0.0;1.0;0.0;26079;26056.0;26103.0;0
26144;0.0;1.0;0.0;26140;26123.0;26175.0;0
26239;0.0;1.0;0.0;26236;26207.0;26268.0;0
26283;2.0;62.0;6.0;26283;;;0
26328;0.0;1.0;0.0;26325;26298.0;26349.0;0
26392;0.0;1.0;0.0;26389;26370.0;26420.0;0
26478;0.0;1.0;0.0;26474;26449.0;26507.0;0
26565;0.0;1.0;0.0;26562;26536.0;26585.0;0
26627;0.0;1.0;0.0;26623;26606.0;26657.0;0
26718;0.0;1.0;0.0;26714;26687.0;26739.0;0
26783;0.0;1.0;0.0;26780;26761.0;26814.0;0
26876;0.0;1.0;0.0;26872;26845.0;26904.0;0
26960;0.0;1.0;0.0;26957;26932.0;26987.0;0
27041;0.0;1.0;0.0;27038;27014.0;27067.0;0
27120;0.0;1.0;0.0;27117;27093.0;27137.0;0
27172;0.0;1.0;0.0;27169;27154.0;27201.0;0
27204;2.0;61.0;6.0;27199;;;0
27261;0.0;1.0;0.0;27258;27231.0;27281.0;0
27321;0.0;1.0;0.0;27318;27301.0;27350.0;0
27409;0.0;1.0;0.0;27406;27379.0;27436.0;0
27490;0.0;1.0;0.0;27487;27463.0;27516.0;0
27569;0.0;1.0;0.0;27566;27542.0;27595.0;0
27649;0.0;1.0;0.0;27646;27622.0;27675.0;0
27729;0.0;1.0;0.0;27725;27702.0;27755.0;0
27807;0.0;1.0;0.0;27803;27781.0;27824.0;0
27859;0.0;1.0;0.0;27855;27841.0;27889.0;0
27949;0.0;1.0;0.0;27946;27919.0;27977.0;0
28034;0.0;1.0;0.0;28031;28005.0;28060.0;0
28114;0.0;1.0;0.0;28110;28087.0;28140.0;0
28193;0.0;1.0;0.0;28190;28166.0;28220.0;0
28274;0.0;1.0;0.0;28271;28247.0;28291.0;0
28326;0.0;1.0;0.0;28323;28308.0;28355.0;0
28415;0.0;1.0;0.0;28412;28385.0;28442.0;0
28498;0.0;1.0;0.0;28495;28470.0;28525.0;0
28579;0.0;1.0;0.0;28576;28552.0;28606.0;0
28618;2.0;62.0;6.0;28618;;;0
28660;0.0;1.0;0.0;28657;28633.0;28686.0;0
28740;0.0;1.0;0.0;28737;28713.0;28767.0;0
28821;0.0;1.0;0.0;28817;28794.0;28847.0;0
28901;0.0;1.0;0.0;28898;28874.0;28928.0;0
28983;0.0;1.0;0.0;28980;28955.0;29010.0;0
29064;0.0;1.0;0.0;29060;29037.0;29088.0;0
29138;0.0;1.0;0.0;29135;29113.0;29165.0;0
29220;0.0;1.0;0.0;29217;29192.0;29247.0;0
29303;0.0;1.0;0.0;29300;29275.0;29330.0;0
29385;0.0;1.0;0.0;29382;29357.0;29412.0;0
29466;0.0;1.0;0.0;29462;29439.0;29492.0;0
29546;0.0;1.0;0.0;29542;29519.0;29573.0;0
29579;2.0;62.0;6.0;29574;;;0
29627;0.0;1.0;0.0;29624;29600.0;29654.0;0
29708;0.0;1.0;0.0;29705;29681.0;29734.0;0
29788;0.0;1.0;0.0;29785;29761.0;29815.0;0
29869;0.0;1.0;0.0;29865;29842.0;29896.0;0
29908;2.0;62.0;6.0;29908;;;0
29951;0.0;1.0;0.0;29948;29923.0;29978.0;0
30032;0.0;1.0;0.0;30029;30005.0;30058.0;0
30111;0.0;1.0;0.0;30108;30084.0;30138.0;0
30192;0.0;1.0;0.0;30188;30165.0;30218.0;0
30272;0.0;1.0;0.0;30269;30245.0;30293.0;0
30335;0.0;1.0;0.0;30332;30314.0;30364.0;0
30371;2.0;61.0;6.0;30367;;;0
30424;0.0;1.0;0.0;30421;30394.0;30452.0;0
30508;0.0;1.0;0.0;30505;30480.0;30535.0;0
30542;2.0;61.0;6.0;30537;;;0
30589;0.0;1.0;0.0;30586;30562.0;30616.0;0
30630;2.0;61.0;6.0;30630;;;0
30671;0.0;1.0;0.0;30668;30643.0;30698.0;0
30752;0.0;1.0;0.0;30749;30725.0;30779.0;0
30833;0.0;1.0;0.0;30829;30806.0;30858.0;0
30910;0.0;1.0;0.0;30907;30884.0;30938.0;0
30994;0.0;1.0;0.0;30990;30966.0;31021.0;0
31075;0.0;1.0;0.0;31072;31048.0;31101.0;0
31155;0.0;1.0;0.0;31152;31128.0;31182.0;0
31188;2.0;61.0;6.0;31183;;;0
31236;0.0;1.0;0.0;31232;31209.0;31263.0;0
31317;0.0;1.0;0.0;31314;31290.0;31344.0;0
31399;0.0;1.0;0.0;31396;31371.0;31425.0;0
31479;0.0;1.0;0.0;31476;31452.0;31501.0;0
31547;0.0;1.0;0.0;31544;31524.0;31573.0;0
31625;0.0;1.0;0.0;31622;31599.0;31654.0;0
31666;2.0;61.0;6.0;31666;;;0
31712;0.0;1.0;0.0;31709;31683.0;31739.0;0
31794;0.0;1.0;0.0;31791;31766.0;31821.0;0
31875;0.0;1.0;0.0;31871;31848.0;31893.0;0
31931;0.0;1.0;0.0;31928;31912.0;31962.0;0
31976;2.0;61.0;6.0;31973;;;0
32025;0.0;1.0;0.0;32022;31993.0;32052.0;0
32060;2.0;61.0;6.0;32055;;;0
32108;0.0;1.0;0.0;32105;32080.0;32125.0;0
32160;0.0;1.0;0.0;32157;32142.0;32191.0;0
32253;0.0;1.0;0.0;32249;32222.0;32282.0;0
32291;2.0;61.0;6.0;32288;;;0
32341;0.0;1.0;0.0;32337;32311.0;32368.0;0
32423;0.0;1.0;0.0;32420;32395.0;32450.0;0
32504;0.0;1.0;0.0;32501;32477.0;32531.0;0
32585;0.0;1.0;0.0;32582;32558.0;32612.0;0
32666;0.0;1.0;0.0;32663;32639.0;32692.0;0
32746;0.0;1.0;0.0;32743;32719.0;32773.0;0
32827;0.0;1.0;0.0;32823;32800.0;32844.0;0
32879;0.0;1.0;0.0;32875;32861.0;32909.0;0
32970;0.0;1.0;0.0;32967;32939.0;32998.0;0
33007;2.0;61.0;6.0;33002;;;0
33056;0.0;1.0;0.0;33053;33027.0;33083.0;0
33093;2.0;61.0;6.0;33088;;;0
33139;0.0;1.0;0.0;33135;33111.0;33166.0;0
33220;0.0;1.0;0.0;33216;33193.0;33237.0;0
33271;0.0;1.0;0.0;33268;33254.0;33298.0;0
33353;0.0;1.0;0.0;33349;33325.0;33382.0;0
33440;0.0;1.0;0.0;33437;33411.0;33456.0;0
33490;0.0;1.0;0.0;33487;33473.0;33520.0;0
33582;0.0;1.0;0.0;33578;33551.0;33602.0;0
33643;0.0;1.0;0.0;33640;33622.0;33659.0;0
33693;0.0;1.0;0.0;33690;33676.0;33722.0;0
33780;0.0;1.0;0.0;33776;33751.0;33808.0;0
33864;0.0;1.0;0.0;33861;33836.0;33892.0;0
33948;0.0;1.0;0.0;33945;33920.0;33975.0;0
34031;0.0;1.0;0.0;34028;34003.0;34058.0;0
34112;0.0;1.0;0.0;34108;34085.0;34139.0;0
34193;0.0;1.0;0.0;34190;34166.0;34220.0;0
34276;0.0;1.0;0.0;34272;34248.0;34303.0;0
34357;0.0;1.0;0.0;34354;34330.0;34384.0;0
34438;0.0;1.0;0.0;34435;34411.0;34465.0;0
34477;2.0;62.0;6.0;34477;;;0
34521;0.0;1.0;0.0;34518;34493.0;34548.0;0
34560;2.0;62.0;6.0;34560;;;0
34604;0.0;1.0;0.0;34601;34576.0;34630.0;0
34684;0.0;1.0;0.0;34681;34657.0;34701.0;0
34736;0.0;1.0;0.0;34733;34718.0;34767.0;0
34830;0.0;1.0;0.0;34827;34798.0;34860.0;0
34873;2.0;62.0;6.0;34873;;;0
34920;0.0;1.0;0.0;34917;34890.0;34947.0;0
35003;0.0;1.0;0.0;35000;34975.0;35030.0;0
35085;0.0;1.0;0.0;35082;35057.0;35113.0;0
35169;0.0;1.0;0.0;35165;35141.0;35196.0;0
35252;0.0;1.0;0.0;35248;35224.0;35268.0;0
35301;0.0;1.0;0.0;35298;35284.0;35331.0;0
35333;2.0;62.0;6.0;35328;;;0
35393;0.0;1.0;0.0;35390;35362.0;35423.0;0
35484;0.0;1.0;0.0;35481;35453.0;35512.0;0
35568;0.0;1.0;0.0;35565;35540.0;35595.0;0
35650;0.0;1.0;0.0;35647;35622.0;35677.0;0
35732;0.0;1.0;0.0;35729;35704.0;35760.0;0
35816;0.0;1.0;0.0;35812;35788.0;35843.0;0
35897;0.0;1.0;0.0;35894;35870.0;35924.0;0
35978;0.0;1.0;0.0;35974;35951.0;36005.0;0
36059;0.0;1.0;0.0;36056;36032.0;36086.0;0
36100;2.0;61.0;6.0;36100;;;0
36141;0.0;1.0;0.0;36138;36113.0;36168.0;0
36223;0.0;1.0;0.0;36220;36195.0;36250.0;0
36304;0.0;1.0;0.0;36301;36277.0;36331.0;0
36385;0.0;1.0;0.0;36382;36358.0;36402.0;0
36437;0.0;1.0;0.0;36433;36419.0;36467.0;0
36467;2.0;61.0;6.0;36462;;;0
36529;0.0;1.0;0.0;36526;36498.0;36558.0;0
36617;0.0;1.0;0.0;36614;36587.0;36644.0;0
36700;0.0;1.0;0.0;36697;36672.0;36727.0;0
36783;0.0;1.0;0.0;36780;36755.0;36810.0;0
36866;0.0;1.0;0.0;36863;36838.0;36893.0;0
36947;0.0;1.0;0.0;36943;36920.0;36973.0;0
37027;0.0;1.0;0.0;37024;37000.0;37047.0;0
37087;0.0;1.0;0.0;37084;37067.0;37117.0;0
37178;0.0;1.0;0.0;37175;37147.0;37198.0;0
37239;0.0;1.0;0.0;37235;37218.0;37270.0;0
37278;2.0;61.0;6.0;37278;;;0
37332;0.0;1.0;0.0;37329;37301.0;37361.0;0
37421;0.0;1.0;0.0;37418;37391.0;37449.0;0
37505;0.0;1.0;0.0;37502;37477.0;37532.0;0
37587;0.0;1.0;0.0;37584;37559.0;37614.0;0
37622;2.0;61.0;6.0;37617;;;0
37669;0.0;1.0;0.0;37666;37641.0;37697.0;0
37753;0.0;1.0;0.0;37749;37725.0;37780.0;0
37836;0.0;1.0;0.0;37833;37808.0;37863.0;0
37917;0.0;1.0;0.0;37913;37890.0;37934.0;0
37968;0.0;1.0;0.0;37965;37951.0;37999.0;0
38061;0.0;1.0;0.0;38058;38030.0;38083.0;0
38127;0.0;1.0;0.0;38124;38105.0;38158.0;0
38159;2.0;61.0;6.0;38154;;;0
38221;0.0;1.0;0.0;38218;38189.0;38241.0;0
38281;0.0;1.0;0.0;38278;38261.0;38312.0;0
38314;2.0;61.0;6.0;38309;;;0
38375;0.0;1.0;0.0;38371;38343.0;38406.0;0
38468;0.0;1.0;0.0;38464;38437.0;38496.0;0
38552;0.0;1.0;0.0;38549;38524.0;38579.0;0
38635;0.0;1.0;0.0;38631;38607.0;38662.0;0
38718;0.0;1.0;0.0;38715;38690.0;38746.0;0
38761;2.0;62.0;6.0;38761;;;0
38802;0.0;1.0;0.0;38799;38774.0;38829.0;0
38835;2.0;61.0;6.0;38830;;;0
38885;0.0;1.0;0.0;38881;38857.0;38912.0;0
38925;2.0;62.0;6.0;38925;;;0
38967;0.0;1.0;0.0;38963;38939.0;38984.0;0
39018;0.0;1.0;0.0;39015;39001.0;39048.0;0
39109;0.0;1.0;0.0;39106;39078.0;39139.0;0
39200;0.0;1.0;0.0;39197;39169.0;39228.0;0
39285;0.0;1.0;0.0;39282;39256.0;39312.0;0
39320;2.0;61.0;6.0;39316;;;0
39368;0.0;1.0;0.0;39365;39340.0;39395.0;0
39451;0.0;1.0;0.0;39448;39423.0;39478.0;0
39533;0.0;1.0;0.0;39530;39505.0;39560.0;0
39614;0.0;1.0;0.0;39611;39587.0;39641.0;0
39696;0.0;1.0;0.0;39692;39668.0;39724.0;0
39780;0.0;1.0;0.0;39776;39752.0;39807.0;0
39862;0.0;1.0;0.0;39859;39834.0;39889.0;0
39943;0.0;1.0;0.0;39940;39916.0;39970.0;0
40025;0.0;1.0;0.0;40022;39997.0;40052.0;0
40108;0.0;1.0;0.0;40105;40080.0;40135.0;0
40143;2.0;61.0;6.0;40138;;;0
40190;0.0;1.0;0.0;40187;40162.0;40214.0;0
40262;0.0;1.0;0.0;40259;40238.0;40280.0;0
40317;0.0;1.0;0.0;40314;40298.0;40349.0;0
40351;2.0;61.0;6.0;40346;;;0
40414;0.0;1.0;0.0;40411;40381.0;40444.0;0
40504;0.0;1.0;0.0;40501;40474.0;40532.0;0
40537;2.0;61.0;6.0;40532;;;0
40588;0.0;1.0;0.0;40585;40560.0;40615.0;0
40671;0.0;1.0;0.0;40668;40643.0;40699.0;0
40755;0.0;1.0;0.0;40751;40727.0;40782.0;0
40837;0.0;1.0;0.0;40834;40809.0;40864.0;0
40872;2.0;61.0;6.0;40867;;;0
40919;0.0;1.0;0.0;40915;40891.0;40946.0;0
41000;0.0;1.0;0.0;40997;40973.0;41027.0;0
41083;0.0;1.0;0.0;41080;41055.0;41110.0;0
41165;0.0;1.0;0.0;41161;41137.0;41192.0;0
41246;0.0;1.0;0.0;41243;41219.0;41270.0;0
41319;0.0;1.0;0.0;41316;41294.0;41348.0;0
41350;2.0;62.0;6.0;41347;;;0
41406;0.0;1.0;0.0;41403;41377.0;41434.0;0
41437;2.0;62.0;6.0;41432;;;0
41490;0.0;1.0;0.0;41487;41462.0;41517.0;0
41571;0.0;1.0;0.0;41568;41544.0;41598.0;0
41653;0.0;1.0;0.0;41649;41625.0;41680.0;0
41736;0.0;1.0;0.0;41733;41708.0;41763.0;0
41819;0.0;1.0;0.0;41815;41791.0;41846.0;0
41900;0.0;1.0;0.0;41897;41873.0;41927.0;0
41981;0.0;1.0;0.0;41978;41954.0;41998.0;0
42033;0.0;1.0;0.0;42030;42015.0;42064.0;0
42064;2.0;61.0;6.0;42059;;;0
42126;0.0;1.0;0.0;42123;42095.0;42155.0;0
42213;0.0;1.0;0.0;42209;42184.0;42240.0;0
42249;2.0;61.0;6.0;42245;;;0
42296;0.0;1.0;0.0;42293;42268.0;42324.0;0
42380;0.0;1.0;0.0;42377;42352.0;42407.0;0
42463;0.0;1.0;0.0;42460;42435.0;42490.0;0
42544;0.0;1.0;0.0;42540;42517.0;42561.0;0
42595;0.0;1.0;0.0;42592;42578.0;42625.0;0
42686;0.0;1.0;0.0;42683;42655.0;42716.0;0
42722;2.0;62.0;6.0;42718;;;0
42776;0.0;1.0;0.0;42773;42746.0;42798.0;0
42843;0.0;1.0;0.0;42839;42820.0;42874.0;0
42880;2.0;61.0;6.0;42880;;;0
42936;0.0;1.0;0.0;42932;42905.0;42964.0;0
42973;2.0;62.0;6.0;42968;;;0
43022;0.0;1.0;0.0;43018;42993.0;43038.0;0
43072;0.0;1.0;0.0;43069;43055.0;43103.0;0
43166;0.0;1.0;0.0;43163;43134.0;43195.0;0
43199;2.0;61.0;6.0;43194;;;0
43254;0.0;1.0;0.0;43251;43224.0;43282.0;0
43289;2.0;61.0;6.0;43284;;;0
43338;0.0;1.0;0.0;43335;43310.0;43366.0;0
43423;0.0;1.0;0.0;43420;43394.0;43451.0;0
43507;0.0;1.0;0.0;43504;43479.0;43534.0;0
43589;0.0;1.0;0.0;43586;43561.0;43616.0;0
43671;0.0;1.0;0.0;43668;43643.0;43699.0;0
43713;2.0;62.0;6.0;43712;;;0
43755;0.0;1.0;0.0;43752;43727.0;43783.0;0
43839;0.0;1.0;0.0;43836;43811.0;43866.0;0
43874;2.0;61.0;6.0;43869;;;0
43921;0.0;1.0;0.0;43918;43893.0;43948.0;0
44004;0.0;1.0;0.0;44000;43976.0;44031.0;0
44038;2.0;61.0;6.0;44033;;;0
44087;0.0;1.0;0.0;44084;44059.0;44114.0;0
44170;0.0;1.0;0.0;44167;44142.0;44197.0;0
44251;0.0;1.0;0.0;44248;44224.0;44271.0;0
44312;0.0;1.0;0.0;44308;44291.0;44343.0;0
44356;2.0;61.0;6.0;44355;;;0
44407;0.0;1.0;0.0;44404;44375.0;44436.0;0
44442;2.0;62.0;6.0;44437;;;0
44495;0.0;1.0;0.0;44492;44465.0;44523.0;0
44580;0.0;1.0;0.0;44577;44551.0;44607.0;0
44662;0.0;1.0;0.0;44659;44634.0;44689.0;0
44696;2.0;61.0;6.0;44691;;;0
44745;0.0;1.0;0.0;44741;44717.0;44772.0;0
44828;0.0;1.0;0.0;44825;44800.0;44856.0;0
44863;2.0;62.0;6.0;44862;;;0
44912;0.0;1.0;0.0;44909;44884.0;44939.0;0
44994;0.0;1.0;0.0;44991;44966.0;45021.0;0
45076;0.0;1.0;0.0;45072;45048.0;45103.0;0
45159;0.0;1.0;0.0;45156;45131.0;45187.0;0
45243;0.0;1.0;0.0;45240;45215.0;45270.0;0
45325;0.0;1.0;0.0;45322;45297.0;45352.0;0
45358;2.0;61.0;6.0;45354;;;0
45407;0.0;1.0;0.0;45404;45379.0;45435.0;0
45446;2.0;62.0;6.0;45446;;;0
45491;0.0;1.0;0.0;45488;45463.0;45519.0;0
45575;0.0;1.0;0.0;45571;45547.0;45602.0;0
45656;0.0;1.0;0.0;45653;45629.0;45674.0;0
45711;0.0;1.0;0.0;45708;45692.0;45743.0;0
45808;0.0;1.0;0.0;45805;45775.0;45838.0;0
45845;2.0;62.0;6.0;45841;;;0
45899;0.0;1.0;0.0;45896;45868.0;45927.0;0
45983;0.0;1.0;0.0;45980;45955.0;46010.0;0
46066;0.0;1.0;0.0;46063;46038.0;46094.0;0
46151;0.0;1.0;0.0;46147;46122.0;46178.0;0
46186;2.0;62.0;6.0;46183;;;0
46233;0.0;1.0;0.0;46230;46205.0;46260.0;0
46268;2.0;62.0;6.0;46263;;;0
46314;0.0;1.0;0.0;46311;46287.0;46341.0;0
46346;2.0;62.0;6.0;46341;;;0
46397;0.0;1.0;0.0;46393;46369.0;46417.0;0
46457;0.0;1.0;0.0;46454;46437.0;46487.0;0
46549;0.0;1.0;0.0;46546;46518.0;46568.0;0
46608;0.0;1.0;0.0;46605;46588.0;46639.0;0
46642;2.0;61.0;6.0;46637;;;0
46702;0.0;1.0;0.0;46699;46670.0;46731.0;0
46791;0.0;1.0;0.0;46788;46761.0;46811.0;0
46852;0.0;1.0;0.0;46849;46831.0;46876.0;0
46926;0.0;1.0;0.0;46922;46901.0;46955.0;0
46979;2.0;62.0;6.0;46976;;;0
47014;0.0;1.0;0.0;47011;46984.0;47031.0;0
47065;0.0;1.0;0.0;47062;47048.0;47096.0;0
47158;0.0;1.0;0.0;47154;47127.0;47177.0;0
47217;0.0;1.0;0.0;47213;47197.0;47242.0;0
47294;0.0;1.0;0.0;47291;47268.0;47312.0;0
47348;0.0;1.0;0.0;47345;47330.0;47377.0;0
47436;0.0;1.0;0.0;47433;47406.0;47466.0;0
47469;2.0;61.0;6.0;47464;;;0
47528;0.0;1.0;0.0;47525;47497.0;47556.0;0
47613;0.0;1.0;0.0;47609;47584.0;47640.0;0
47647;2.0;61.0;6.0;47642;;;0
47696;0.0;1.0;0.0;47693;47668.0;47724.0;0
47780;0.0;1.0;0.0;47776;47752.0;47807.0;0
47861;0.0;1.0;0.0;47858;47834.0;47888.0;0
47943;0.0;1.0;0.0;47940;47915.0;47970.0;0
48026;0.0;1.0;0.0;48023;47998.0;48053.0;0
48108;0.0;1.0;0.0;48105;48080.0;48135.0;0
48143;2.0;61.0;6.0;48138;;;0
48190;0.0;1.0;0.0;48187;48162.0;48217.0;0
48271;0.0;1.0;0.0;48268;48244.0;48299.0;0
48304;2.0;61.0;6.0;48299;;;0
48355;0.0;1.0;0.0;48351;48327.0;48382.0;0
48437;0.0;1.0;0.0;48434;48409.0;48464.0;0
48518;0.0;1.0;0.0;48515;48491.0;48535.0;0
48570;0.0;1.0;0.0;48567;48552.0;48601.0;0
48664;0.0;1.0;0.0;48660;48632.0;48693.0;0
48707;2.0;62.0;6.0;48707;;;0
48753;0.0;1.0;0.0;48749;48723.0;48781.0;0
48837;0.0;1.0;0.0;48833;48809.0;48864.0;0
48920;0.0;1.0;0.0;48916;48892.0;48937.0;0
48971;0.0;1.0;0.0;48968;48954.0;49002.0;0
49066;0.0;1.0;0.0;49062;49034.0;49086.0;0
49128;0.0;1.0;0.0;49125;49107.0;49159.0;0
49160;2.0;62.0;6.0;49156;;;0
49223;0.0;1.0;0.0;49220;49191.0;49253.0;0
49315;0.0;1.0;0.0;49311;49284.0;49335.0;0
49376;0.0;1.0;0.0;49373;49355.0;49407.0;0
49417;2.0;62.0;6.0;49417;;;0
49469;0.0;1.0;0.0;49466;49438.0;49497.0;0
49555;0.0;1.0;0.0;49552;49526.0;49575.0;0
49615;0.0;1.0;0.0;49612;49595.0;49646.0;0
49710;0.0;1.0;0.0;49706;49678.0;49738.0;0
49796;0.0;1.0;0.0;49793;49767.0;49824.0;0
49880;0.0;1.0;0.0;49877;49852.0;49908.0;0
49965;0.0;1.0;0.0;49962;49936.0;49981.0;0
50015;0.0;1.0;0.0;50012;49998.0;50042.0;0
50096;0.0;1.0;0.0;50093;50069.0;50126.0;0
50130;2.0;62.0;6.0;50126;;;0
50186;0.0;1.0;0.0;50183;50156.0;50215.0;0
50229;2.0;62.0;6.0;50229;;;0
50273;0.0;1.0;0.0;50270;50244.0;50301.0;0
50357;0.0;1.0;0.0;50354;50329.0;50384.0;0
50439;0.0;1.0;0.0;50436;50411.0;50466.0;0
50472;2.0;62.0;6.0;50467;;;0
50521;0.0;1.0;0.0;50518;50493.0;50548.0;0
50604;0.0;1.0;0.0;50601;50576.0;50631.0;0
50687;0.0;1.0;0.0;50684;50659.0;50714.0;0
50769;0.0;1.0;0.0;50766;50741.0;50796.0;0
50808;2.0;62.0;6.0;50808;;;0
50851;0.0;1.0;0.0;50848;50823.0;50879.0;0
50886;2.0;62.0;6.0;50881;;;0
50935;0.0;1.0;0.0;50932;50907.0;50962.0;0
50967;2.0;61.0;6.0;50962;;;0
51018;0.0;1.0;0.0;51015;50990.0;51045.0;0
51100;0.0;1.0;0.0;51097;51072.0;51127.0;0
51182;0.0;1.0;0.0;51179;51154.0;51210.0;0
51266;0.0;1.0;0.0;51263;51238.0;51294.0;0
51350;0.0;1.0;0.0;51347;51322.0;51377.0;0
51432;0.0;1.0;0.0;51428;51404.0;51459.0;0
51514;0.0;1.0;0.0;51511;51486.0;51542.0;0
51553;2.0;61.0;6.0;51553;;;0
51598;0.0;1.0;0.0;51595;51570.0;51625.0;0
51681;0.0;1.0;0.0;51677;51653.0;51708.0;0
51762;0.0;1.0;0.0;51759;51735.0;51789.0;0
51845;0.0;1.0;0.0;51842;51817.0;51873.0;0
51930;0.0;1.0;0.0;51926;51901.0;51957.0;0
52012;0.0;1.0;0.0;52009;51984.0;52039.0;0
52093;0.0;1.0;0.0;52090;52066.0;52120.0;0
52134;2.0;61.0;6.0;52134;;;0
52176;0.0;1.0;0.0;52173;52148.0;52204.0;0
52261;0.0;1.0;0.0;52257;52232.0;52288.0;0
52343;0.0;1.0;0.0;52340;52315.0;52358.0;0
52389;1.0;34.0;97.0;52384;52373.0;52421.0;1
52486;0.0;1.0;0.0;52483;52453.0;52514.0;0
52521;2.0;62.0;6.0;52516;;;0
52570;0.0;1.0;0.0;52567;52542.0;52597.0;0
52652;0.0;1.0;0.0;52649;52624.0;52679.0;0
52688;2.0;62.0;6.0;52683;;;0
52734;0.0;1.0;0.0;52731;52706.0;52762.0;0
52818;0.0;1.0;0.0;52814;52790.0;52845.0;0
52901;0.0;1.0;0.0;52898;52873.0;52928.0;0
52984;0.0;1.0;0.0;52981;52956.0;53011.0;0
53065;0.0;1.0;0.0;53062;53038.0;53092.0;0
53146;0.0;1.0;0.0;53143;53119.0;53173.0;0
53181;2.0;61.0;6.0;53176;;;0
53229;0.0;1.0;0.0;53226;53201.0;53256.0;0
53312;0.0;1.0;0.0;53308;53284.0;53339.0;0
53394;0.0;1.0;0.0;53390;53366.0;53421.0;0
53475;0.0;1.0;0.0;53471;53448.0;53493.0;0
53530;0.0;1.0;0.0;53527;53511.0;53562.0;0
53626;0.0;1.0;0.0;53623;53594.0;53654.0;0
53712;0.0;1.0;0.0;53709;53683.0;53732.0;0
53773;0.0;1.0;0.0;53770;53752.0;53804.0;0
53807;2.0;61.0;6.0;53802;;;0
53868;0.0;1.0;0.0;53864;53836.0;53897.0;0
53957;0.0;1.0;0.0;53953;53927.0;53977.0;0
54019;0.0;1.0;0.0;54016;53998.0;54050.0;0
54056;2.0;61.0;6.0;54056;;;0
54112;0.0;1.0;0.0;54109;54081.0;54141.0;0
54147;2.0;62.0;6.0;54142;;;0
54200;0.0;1.0;0.0;54196;54170.0;54223.0;0
54271;0.0;1.0;0.0;54268;54247.0;54300.0;0
54360;0.0;1.0;0.0;54357;54330.0;54388.0;0
54446;0.0;1.0;0.0;54443;54417.0;54474.0;0
54530;0.0;1.0;0.0;54526;54502.0;54557.0;0
54570;2.0;62.0;6.0;54570;;;0
54613;0.0;1.0;0.0;54610;54585.0;54640.0;0
54696;0.0;1.0;0.0;54693;54668.0;54723.0;0
54730;2.0;62.0;6.0;54725;;;0
54779;0.0;1.0;0.0;54776;54751.0;54806.0;0
54862;0.0;1.0;0.0;54859;54834.0;54890.0;0
54946;0.0;1.0;0.0;54943;54918.0;54974.0;0
55030;0.0;1.0;0.0;55027;55002.0;55057.0;0
55112;0.0;1.0;0.0;55109;55084.0;55139.0;0
55195;0.0;1.0;0.0;55191;55167.0;55222.0;0
55278;0.0;1.0;0.0;55275;55250.0;55306.0;0
55313;2.0;62.0;6.0;55309;;;0
55362;0.0;1.0;0.0;55359;55334.0;55389.0;0
55444;0.0;1.0;0.0;55441;55416.0;55471.0;0
55527;0.0;1.0;0.0;55524;55499.0;55548.0;0
55590;0.0;1.0;0.0;55587;55569.0;55606.0;0
55638;0.0;1.0;0.0;55635;55622.0;55657.0;0
55695;0.0;1.0;0.0;55692;55676.0;55724.0;0
55729;2.0;62.0;6.0;55724;;;0
55782;0.0;1.0;0.0;55779;55753.0;55812.0;0
55874;0.0;1.0;0.0;55870;55843.0;55902.0;0
55959;0.0;1.0;0.0;55955;55930.0;55986.0;0
55993;2.0;62.0;6.0;55989;;;0
56042;0.0;1.0;0.0;56038;56014.0;56069.0;0
56125;0.0;1.0;0.0;56122;56097.0;56152.0;0
56157;2.0;61.0;6.0;56153;;;0
56207;0.0;1.0;0.0;56204;56179.0;56234.0;0
56289;0.0;1.0;0.0;56286;56261.0;56316.0;0
56371;0.0;1.0;0.0;56368;56343.0;56392.0;0
56435;0.0;1.0;0.0;56432;56413.0;56465.0;0
56468;2.0;61.0;6.0;56463;;;0
56527;0.0;1.0;0.0;56523;56496.0;56549.0;0
56595;0.0;1.0;0.0;56591;56572.0;56611.0;0
56644;0.0;1.0;0.0;56641;56627.0;56664.0;0
56704;0.0;1.0;0.0;56701;56684.0;56730.0;0
56738;2.0;61.0;6.0;56733;;;0
56784;0.0;1.0;0.0;56780;56757.0;56814.0;0
56821;2.0;61.0;6.0;56816;;;0
56876;0.0;1.0;0.0;56873;56845.0;56897.0;0
56940;0.0;1.0;0.0;56937;56918.0;56970.0;0
56978;2.0;61.0;6.0;56975;;;0
57031;0.0;1.0;0.0;57028;57000.0;57053.0;0
57097;0.0;1.0;0.0;57094;57075.0;57128.0;0
57190;0.0;1.0;0.0;57187;57159.0;57219.0;0
57279;0.0;1.0;0.0;57276;57249.0;57307.0;0
57365;0.0;1.0;0.0;57361;57336.0;57392.0;0
57448;0.0;1.0;0.0;57445;57420.0;57475.0;0
57530;0.0;1.0;0.0;57527;57502.0;57557.0;0
57613;0.0;1.0;0.0;57610;57585.0;57640.0;0
57696;0.0;1.0;0.0;57693;57668.0;57723.0;0
57778;0.0;1.0;0.0;57775;57750.0;57805.0;0
57860;0.0;1.0;0.0;57857;57832.0;57887.0;0
57896;2.0;61.0;6.0;57891;;;0
57943;0.0;1.0;0.0;57940;57915.0;57970.0;0
58025;0.0;1.0;0.0;58021;57997.0;58048.0;0
58096;0.0;1.0;0.0;58093;58072.0;58124.0;0
58182;0.0;1.0;0.0;58179;58153.0;58210.0;0
58268;0.0;1.0;0.0;58265;58239.0;58295.0;0
58350;0.0;1.0;0.0;58347;58322.0;58371.0;0
58413;0.0;1.0;0.0;58409;58392.0;58443.0;0
58505;0.0;1.0;0.0;58502;58474.0;58535.0;0
58595;0.0;1.0;0.0;58592;58565.0;58622.0;0
58678;0.0;1.0;0.0;58675;58650.0;58705.0;0
58711;2.0;61.0;6.0;58706;;;0
58760;0.0;1.0;0.0;58757;58732.0;58788.0;0
58845;0.0;1.0;0.0;58841;58816.0;58872.0;0
58879;2.0;61.0;6.0;58875;;;0
58927;0.0;1.0;0.0;58924;58899.0;58943.0;0
58977;0.0;1.0;0.0;58974;58960.0;59007.0;0
59068;0.0;1.0;0.0;59065;59037.0;59098.0;0
59105;2.0;61.0;6.0;59100;;;0
59158;0.0;1.0;0.0;59155;59128.0;59186.0;0
59242;0.0;1.0;0.0;59239;59214.0;59269.0;0
59324;0.0;1.0;0.0;59321;59296.0;59352.0;0
59360;2.0;61.0;6.0;59356;;;0
59408;0.0;1.0;0.0;59405;59380.0;59435.0;0
59491;0.0;1.0;0.0;59488;59463.0;59512.0;0
59554;0.0;1.0;0.0;59551;59533.0;59578.0;0
59626;0.0;1.0;0.0;59623;59602.0;59648.0;0
59693;0.0;1.0;0.0;59690;59670.0;59721.0;0
59779;0.0;1.0;0.0;59776;59750.0;59809.0;0
59813;2.0;61.0;6.0;59808;;;0
59869;0.0;1.0;0.0;59866;59839.0;59897.0;0
59953;0.0;1.0;0.0;59950;59925.0;59981.0;0
59987;2.0;61.0;6.0;59982;;;0
60037;0.0;1.0;0.0;60034;60009.0;60064.0;0
60120;0.0;1.0;0.0;60116;60092.0;60147.0;0
60153;2.0;61.0;6.0;60148;;;0
60201;0.0;1.0;0.0;60198;60174.0;60228.0;0
60283;0.0;1.0;0.0;60280;60255.0;60310.0;0
60366;0.0;1.0;0.0;60363;60338.0;60386.0;0
60428;0.0;1.0;0.0;60425;60407.0;60458.0;0
60460;2.0;62.0;6.0;60455;;;0
60519;0.0;1.0;0.0;60516;60488.0;60547.0;0
60604;0.0;1.0;0.0;60601;60575.0;60625.0;0
60668;0.0;1.0;0.0;60665;60646.0;60698.0;0
60759;0.0;1.0;0.0;60756;60728.0;60781.0;0
60827;0.0;1.0;0.0;60824;60804.0;60857.0;0
60868;2.0;62.0;6.0;60868;;;0
60919;0.0;1.0;0.0;60916;60888.0;60947.0;0
60961;2.0;62.0;6.0;60961;;;0
61003;0.0;1.0;0.0;61000;60975.0;61020.0;0
61054;0.0;1.0;0.0;61051;61037.0;61084.0;0
61144;0.0;1.0;0.0;61141;61114.0;61173.0;0
61231;0.0;1.0;0.0;61228;61202.0;61258.0;0
61314;0.0;1.0;0.0;61311;61286.0;61341.0;0
61349;2.0;61.0;6.0;61344;;;0
61396;0.0;1.0;0.0;61393;61368.0;61413.0;0
61448;0.0;1.0;0.0;61445;61430.0;61474.0;0
61481;2.0;61.0;6.0;61476;;;0
61526;0.0;1.0;0.0;61523;61500.0;61556.0;0
61568;2.0;62.0;6.0;61568;;;0
61616;0.0;1.0;0.0;61613;61586.0;61644.0;0
61651;2.0;62.0;6.0;61646;;;0
61700;0.0;1.0;0.0;61697;61672.0;61727.0;0
61783;0.0;1.0;0.0;61780;61755.0;61810.0;0
61866;0.0;1.0;0.0;61863;61838.0;61893.0;0
61901;2.0;61.0;6.0;61896;;;0
61949;0.0;1.0;0.0;61946;61921.0;61976.0;0
62031;0.0;1.0;0.0;62028;62003.0;62058.0;0
62112;0.0;1.0;0.0;62109;62085.0;62139.0;0
62195;0.0;1.0;0.0;62192;62167.0;62222.0;0
62278;0.0;1.0;0.0;62275;62250.0;62305.0;0
62360;0.0;1.0;0.0;62357;62332.0;62387.0;0
62442;0.0;1.0;0.0;62439;62414.0;62469.0;0
62525;0.0;1.0;0.0;62522;62497.0;62552.0;0
62608;0.0;1.0;0.0;62604;62580.0;62635.0;0
62689;0.0;1.0;0.0;62685;62662.0;62716.0;0
62771;0.0;1.0;0.0;62767;62743.0;62788.0;0
62823;0.0;1.0;0.0;62819;62805.0;62853.0;0
62856;2.0;61.0;6.0;62851;;;0
62915;0.0;1.0;0.0;62911;62884.0;62943.0;0
63001;0.0;1.0;0.0;62997;62972.0;63021.0;0
63062;0.0;1.0;0.0;63059;63041.0;63079.0;0
63115;0.0;1.0;0.0;63112;63097.0;63145.0;0
63206;0.0;1.0;0.0;63203;63175.0;63235.0;0
63242;2.0;61.0;6.0;63237;;;0
63294;0.0;1.0;0.0;63291;63264.0;63314.0;0
63355;0.0;1.0;0.0;63352;63334.0;63378.0;0
63425;0.0;1.0;0.0;63422;63401.0;63456.0;0
63520;0.0;1.0;0.0;63517;63488.0;63549.0;0
63607;0.0;1.0;0.0;63603;63578.0;63635.0;0
63641;2.0;61.0;6.0;63636;;;0
63691;0.0;1.0;0.0;63688;63663.0;63719.0;0
63776;0.0;1.0;0.0;63773;63747.0;63804.0;0
63815;2.0;61.0;6.0;63815;;;0
63860;0.0;1.0;0.0;63857;63832.0;63887.0;0
63895;2.0;61.0;6.0;63890;;;0
63942;0.0;1.0;0.0;63939;63914.0;63969.0;0
64024;0.0;1.0;0.0;64021;63996.0;64052.0;0
64059;2.0;61.0;6.0;64054;;;0
64108;0.0;1.0;0.0;64105;64080.0;64135.0;0
64190;0.0;1.0;0.0;64187;64162.0;64217.0;0
64224;2.0;61.0;6.0;64219;;;0
64272;0.0;1.0;0.0;64269;64244.0;64299.0;0
64354;0.0;1.0;0.0;64351;64326.0;64381.0;0
64437;0.0;1.0;0.0;64434;64409.0;64464.0;0
64520;0.0;1.0;0.0;64517;64492.0;64547.0;0
64553;2.0;61.0;6.0;64548;;;0
64601;0.0;1.0;0.0;64598;64574.0;64618.0;0
64654;0.0;1.0;0.0;64650;64636.0;64683.0;0
64743;0.0;1.0;0.0;64740;64713.0;64773.0;0
64780;2.0;61.0;6.0;64775;;;0
64833;0.0;1.0;0.0;64830;64803.0;64861.0;0
64918;0.0;1.0;0.0;64914;64889.0;64939.0;0
64983;0.0;1.0;0.0;64980;64961.0;65015.0;0
65079;0.0;1.0;0.0;65076;65047.0;65107.0;0
65113;2.0;61.0;6.0;65108;;;0
65164;0.0;1.0;0.0;65161;65135.0;65191.0;0
65247;0.0;1.0;0.0;65243;65219.0;65274.0;0
65281;2.0;61.0;6.0;65276;;;0
65328;0.0;1.0;0.0;65325;65301.0;65355.0;0
65370;2.0;61.0;6.0;65370;;;0
65411;0.0;1.0;0.0;65408;65383.0;65438.0;0
65494;0.0;1.0;0.0;65491;65466.0;65521.0;0
65575;0.0;1.0;0.0;65572;65548.0;65592.0;0
65626;0.0;1.0;0.0;65623;65609.0;65656.0;0
65718;0.0;1.0;0.0;65715;65687.0;65748.0;0
65752;2.0;62.0;6.0;65747;;;0
65809;0.0;1.0;0.0;65805;65778.0;65829.0;0
65870;0.0;1.0;0.0;65867;65849.0;65893.0;0
65939;0.0;1.0;0.0;65936;65916.0;65971.0;0
65988;2.0;62.0;6.0;65985;;;0
66035;0.0;1.0;0.0;66032;66003.0;66065.0;0
66069;2.0;61.0;6.0;66064;;;0
66125;0.0;1.0;0.0;66122;66095.0;66153.0;0
66209;0.0;1.0;0.0;66205;66181.0;66236.0;0
66292;0.0;1.0;0.0;66289;66264.0;66320.0;0
66325;2.0;61.0;6.0;66321;;;0
66377;0.0;1.0;0.0;66373;66348.0;66404.0;0
66459;0.0;1.0;0.0;66456;66431.0;66486.0;0
66541;0.0;1.0;0.0;66537;66513.0;66558.0;0
66593;0.0;1.0;0.0;66589;66575.0;66622.0;0
66682;0.0;1.0;0.0;66679;66652.0;66712.0;0
66716;2.0;61.0;6.0;66711;;;0
66773;0.0;1.0;0.0;66770;66742.0;66791.0;0
66827;0.0;1.0;0.0;66824;66809.0;66859.0;0
66923;0.0;1.0;0.0;66920;66891.0;66945.0;0
66990;0.0;1.0;0.0;66987;66967.0;67021.0;0
67023;2.0;61.0;6.0;67018;;;0
67085;0.0;1.0;0.0;67081;67053.0;67113.0;0
67171;0.0;1.0;0.0;67168;67142.0;67191.0;0
67232;0.0;1.0;0.0;67229;67211.0;67258.0;0
67311;0.0;1.0;0.0;67308;67284.0;67341.0;0
67401;0.0;1.0;0.0;67398;67371.0;67422.0;0
67464;0.0;1.0;0.0;67460;67443.0;67495.0;0
67558;0.0;1.0;0.0;67554;67526.0;67586.0;0
67644;0.0;1.0;0.0;67641;67615.0;67664.0;0
67705;0.0;1.0;0.0;67702;67684.0;67736.0;0
67800;0.0;1.0;0.0;67797;67768.0;67828.0;0
67886;0.0;1.0;0.0;67883;67857.0;67907.0;0
67951;0.0;1.0;0.0;67948;67929.0;67979.0;0
67985;2.0;62.0;6.0;67980;;;0
68037;0.0;1.0;0.0;68033;68008.0;68066.0;0
68126;0.0;1.0;0.0;68123;68096.0;68146.0;0
68186;0.0;1.0;0.0;68183;68166.0;68218.0;0
68282;0.0;1.0;0.0;68278;68250.0;68312.0;0
68373;0.0;1.0;0.0;68369;68342.0;68395.0;0
68441;0.0;1.0;0.0;68438;68418.0;68472.0;0
68475;2.0;61.0;6.0;68470;;;0
68534;0.0;1.0;0.0;68531;68503.0;68562.0;0
68620;0.0;1.0;0.0;68616;68591.0;68648.0;0
68653;2.0;62.0;6.0;68648;;;0
68704;0.0;1.0;0.0;68701;68676.0;68732.0;0
68789;0.0;1.0;0.0;68785;68760.0;68816.0;0
68872;0.0;1.0;0.0;68869;68844.0;68899.0;0
68955;0.0;1.0;0.0;68952;68927.0;68972.0;0
69006;0.0;1.0;0.0;69003;68989.0;69036.0;0
69098;0.0;1.0;0.0;69094;69067.0;69128.0;0
69135;2.0;61.0;6.0;69132;;;0
69188;0.0;1.0;0.0;69184;69158.0;69216.0;0
69273;0.0;1.0;0.0;69269;69244.0;69301.0;0
69308;2.0;61.0;6.0;69303;;;0
69358;0.0;1.0;0.0;69355;69329.0;69386.0;0
69393;2.0;61.0;6.0;69390;;;0
69442;0.0;1.0;0.0;69439;69414.0;69469.0;0
69525;0.0;1.0;0.0;69522;69497.0;69546.0;0
69588;0.0;1.0;0.0;69585;69567.0;69619.0;0
69683;0.0;1.0;0.0;69679;69651.0;69712.0;0
69726;2.0;62.0;6.0;69726;;;0
69772;0.0;1.0;0.0;69769;69742.0;69793.0;0
69837;0.0;1.0;0.0;69834;69815.0;69866.0;0
69925;0.0;1.0;0.0;69921;69895.0;69955.0;0
70015;0.0;1.0;0.0;70012;69985.0;70043.0;0
70050;2.0;61.0;6.0;70045;;;0
70100;0.0;1.0;0.0;70097;70071.0;70127.0;0
70183;0.0;1.0;0.0;70180;70155.0;70200.0;0
70235;0.0;1.0;0.0;70232;70217.0;70267.0;0
70331;0.0;1.0;0.0;70328;70299.0;70361.0;0
70368;2.0;61.0;6.0;70363;;;0
70423;0.0;1.0;0.0;70419;70392.0;70451.0;0
70507;0.0;1.0;0.0;70504;70479.0;70535.0;0
70543;2.0;61.0;6.0;70538;;;0
70591;0.0;1.0;0.0;70588;70563.0;70619.0;0
70627;2.0;61.0;6.0;70622;;;0
70676;0.0;1.0;0.0;70673;70647.0;70704.0;0
70709;2.0;61.0;6.0;70704;;;0
70760;0.0;1.0;0.0;70757;70732.0;70787.0;0
70843;0.0;1.0;0.0;70839;70815.0;70870.0;0
70877;2.0;61.0;6.0;70872;;;0
70926;0.0;1.0;0.0;70923;70898.0;70954.0;0
70967;2.0;61.0;6.0;70967;;;0
71011;0.0;1.0;0.0;71008;70982.0;71038.0;0
71047;2.0;61.0;6.0;71042;;;0
71094;0.0;1.0;0.0;71091;71066.0;71121.0;0
71134;2.0;61.0;6.0;71134;;;0
71177;0.0;1.0;0.0;71173;71149.0;71194.0;0
71229;0.0;1.0;0.0;71226;71211.0;71259.0;0
71260;2.0;61.0;6.0;71255;;;0
71319;0.0;1.0;0.0;71316;71289.0;71349.0;0
71410;0.0;1.0;0.0;71407;71379.0;71430.0;0
71471;0.0;1.0;0.0;71468;71450.0;71503.0;0
71567;0.0;1.0;0.0;71564;71535.0;71597.0;0
71603;2.0;61.0;6.0;71598;;;0
71657;0.0;1.0;0.0;71654;71627.0;71685.0;0
71743;0.0;1.0;0.0;71740;71714.0;71771.0;0
71827;0.0;1.0;0.0;71824;71799.0;71855.0;0
71911;0.0;1.0;0.0;71907;71883.0;71939.0;0
71945;2.0;62.0;6.0;71940;;;0
71995;0.0;1.0;0.0;71992;71967.0;72023.0;0
72080;0.0;1.0;0.0;72077;72051.0;72107.0;0
72163;0.0;1.0;0.0;72159;72135.0;72190.0;0
72245;0.0;1.0;0.0;72242;72217.0;72273.0;0
72329;0.0;1.0;0.0;72326;72301.0;72357.0;0
72414;0.0;1.0;0.0;72410;72385.0;72431.0;0
72465;0.0;1.0;0.0;72461;72448.0;72495.0;0
72556;0.0;1.0;0.0;72553;72525.0;72586.0;0
72590;2.0;62.0;6.0;72585;;;0
72647;0.0;1.0;0.0;72644;72616.0;72668.0;0
72712;0.0;1.0;0.0;72708;72690.0;72742.0;0
72746;2.0;61.0;6.0;72741;;;0
72804;0.0;1.0;0.0;72801;72773.0;72832.0;0
72890;0.0;1.0;0.0;72887;72861.0;72911.0;0
72954;0.0;1.0;0.0;72951;72932.0;72971.0;0
73005;0.0;1.0;0.0;73002;72988.0;73035.0;0
73040;2.0;62.0;6.0;73037;;;0
73095;0.0;1.0;0.0;73092;73065.0;73124.0;0
73129;2.0;62.0;6.0;73124;;;0
73183;0.0;1.0;0.0;73179;73153.0;73204.0;0
73248;0.0;1.0;0.0;73245;73226.0;73280.0;0
73345;0.0;1.0;0.0;73341;73312.0;73374.0;0
73434;0.0;1.0;0.0;73430;73404.0;73455.0;0
73497;0.0;1.0;0.0;73494;73476.0;73528.0;0
73592;0.0;1.0;0.0;73589;73560.0;73621.0;0
73640;2.0;62.0;6.0;73637;;;0
73681;0.0;1.0;0.0;73678;73651.0;73709.0;0
73767;0.0;1.0;0.0;73764;73738.0;73794.0;0
73850;0.0;1.0;0.0;73847;73822.0;73877.0;0
73933;0.0;1.0;0.0;73930;73905.0;73950.0;0
73985;0.0;1.0;0.0;73982;73967.0;74015.0;0
74019;2.0;61.0;6.0;74014;;;0
74077;0.0;1.0;0.0;74074;74046.0;74106.0;0
74112;2.0;61.0;6.0;74107;;;0
74166;0.0;1.0;0.0;74162;74136.0;74188.0;0
74233;0.0;1.0;0.0;74229;74210.0;74259.0;0
74311;0.0;1.0;0.0;74308;74285.0;74342.0;0
74405;0.0;1.0;0.0;74402;74373.0;74433.0;0
74438;2.0;61.0;6.0;74433;;;0
74489;0.0;1.0;0.0;74486;74461.0;74516.0;0
74572;0.0;1.0;0.0;74569;74544.0;74600.0;0
74603;2.0;61.0;6.0;74600;;;0
74656;0.0;1.0;0.0;74653;74628.0;74684.0;0
74698;2.0;61.0;6.0;74698;;;0
74741;0.0;1.0;0.0;74737;74712.0;74768.0;0
74823;0.0;1.0;0.0;74819;74795.0;74840.0;0
74874;0.0;1.0;0.0;74870;74857.0;74904.0;0
74965;0.0;1.0;0.0;74961;74934.0;74995.0;0
75056;0.0;1.0;0.0;75053;75025.0;75076.0;0
75117;0.0;1.0;0.0;75113;75096.0;75148.0;0
75162;2.0;61.0;6.0;75159;;;0
75211;0.0;1.0;0.0;75208;75179.0;75240.0;0
75249;2.0;61.0;6.0;75244;;;0
75300;0.0;1.0;0.0;75297;75270.0;75328.0;0
75385;0.0;1.0;0.0;75382;75356.0;75412.0;0
75467;0.0;1.0;0.0;75464;75439.0;75494.0;0
75549;0.0;1.0;0.0;75546;75521.0;75576.0;0
75632;0.0;1.0;0.0;75629;75604.0;75652.0;0
75692;0.0;1.0;0.0;75688;75672.0;75722.0;0
75784;0.0;1.0;0.0;75781;75753.0;75812.0;0
75819;2.0;61.0;6.0;75814;;;0
75870;0.0;1.0;0.0;75866;75841.0;75892.0;0
75936;0.0;1.0;0.0;75933;75914.0;75967.0;0
76029;0.0;1.0;0.0;76026;75998.0;76057.0;0
76115;0.0;1.0;0.0;76112;76086.0;76143.0;0
76199;0.0;1.0;0.0;76196;76171.0;76226.0;0
76232;2.0;61.0;6.0;76227;;;0
76282;0.0;1.0;0.0;76278;76254.0;76299.0;0
76334;0.0;1.0;0.0;76331;76316.0;76364.0;0
76426;0.0;1.0;0.0;76422;76395.0;76455.0;0
76462;2.0;62.0;6.0;76457;;;0
76514;0.0;1.0;0.0;76511;76484.0;76541.0;0
76597;0.0;1.0;0.0;76594;76569.0;76625.0;0
76682;0.0;1.0;0.0;76679;76653.0;76710.0;0
76718;2.0;62.0;6.0;76713;;;0
76766;0.0;1.0;0.0;76763;76738.0;76793.0;0
76847;0.0;1.0;0.0;76844;76820.0;76874.0;0
76929;0.0;1.0;0.0;76925;76901.0;76946.0;0
76981;0.0;1.0;0.0;76978;76963.0;77011.0;0
77015;2.0;62.0;6.0;77010;;;0
77073;0.0;1.0;0.0;77070;77042.0;77102.0;0
77115;2.0;62.0;6.0;77115;;;0
77160;0.0;1.0;0.0;77157;77131.0;77187.0;0
77243;0.0;1.0;0.0;77240;77215.0;77271.0;0
77327;0.0;1.0;0.0;77324;77299.0;77355.0;0
77411;0.0;1.0;0.0;77408;77383.0;77438.0;0
77444;2.0;61.0;6.0;77439;;;0
77493;0.0;1.0;0.0;77490;77465.0;77520.0;0
77575;0.0;1.0;0.0;77572;77547.0;77602.0;0
77607;2.0;62.0;6.0;77602;;;0
77657;0.0;1.0;0.0;77654;77629.0;77685.0;0
77741;0.0;1.0;0.0;77737;77713.0;77768.0;0
77774;2.0;62.0;6.0;77769;;;0
77824;0.0;1.0;0.0;77821;77796.0;77851.0;0
77906;0.0;1.0;0.0;77903;77878.0;77933.0;0
77989;0.0;1.0;0.0;77985;77961.0;78016.0;0
78072;0.0;1.0;0.0;78069;78044.0;78099.0;0
78155;0.0;1.0;0.0;78152;78127.0;78182.0;0
78236;0.0;1.0;0.0;78233;78209.0;78253.0;0
78288;0.0;1.0;0.0;78285;78270.0;78319.0;0
78321;2.0;61.0;6.0;78316;;;0
78381;0.0;1.0;0.0;78377;78350.0;78410.0;0
78418;2.0;62.0;6.0;78415;;;0
78470;0.0;1.0;0.0;78466;78440.0;78491.0;0
78534;0.0;1.0;0.0;78531;78512.0;78564.0;0
78565;2.0;61.0;6.0;78560;;;0
78625;0.0;1.0;0.0;78622;78594.0;78653.0;0
78710;0.0;1.0;0.0;78707;78681.0;78731.0;0
78774;0.0;1.0;0.0;78771;78752.0;78790.0;0
78822;0.0;1.0;0.0;78818;78806.0;78841.0;0
78881;0.0;1.0;0.0;78878;78861.0;78898.0;0
78932;0.0;1.0;0.0;78929;78915.0;78962.0;0
79022;0.0;1.0;0.0;79019;78992.0;79043.0;0
79085;0.0;1.0;0.0;79082;79064.0;79116.0;0
79180;0.0;1.0;0.0;79177;79148.0;79209.0;0
79268;0.0;1.0;0.0;79264;79238.0;79296.0;0
79353;0.0;1.0;0.0;79350;79324.0;79381.0;0
79437;0.0;1.0;0.0;79434;79409.0;79457.0;0
79497;0.0;1.0;0.0;79494;79477.0;79524.0;0
79580;0.0;1.0;0.0;79576;79552.0;79609.0;0
79667;0.0;1.0;0.0;79664;79638.0;79683.0;0
79717;0.0;1.0;0.0;79714;79700.0;79748.0;0
79751;2.0;61.0;6.0;79746;;;0
79810;0.0;1.0;0.0;79807;79779.0;79839.0;0
79897;0.0;1.0;0.0;79894;79868.0;79925.0;0
79981;0.0;1.0;0.0;79977;79953.0;80008.0;0
80063;0.0;1.0;0.0;80060;80035.0;80091.0;0
80147;0.0;1.0;0.0;80144;80119.0;80174.0;0
80230;0.0;1.0;0.0;80226;80202.0;80257.0;0
80312;0.0;1.0;0.0;80309;80284.0;80340.0;0
80345;2.0;61.0;6.0;80341;;;0
80396;0.0;1.0;0.0;80393;80368.0;80423.0;0
80479;0.0;1.0;0.0;80476;80451.0;80506.0;0
80561;0.0;1.0;0.0;80558;80533.0;80588.0;0
80642;0.0;1.0;0.0;80639;80615.0;80659.0;0
80694;0.0;1.0;0.0;80691;80676.0;80725.0;0
80730;2.0;61.0;6.0;80726;;;0
80787;0.0;1.0;0.0;80783;80756.0;80816.0;0
80820;2.0;62.0;6.0;80815;;;0
80875;0.0;1.0;0.0;80872;80845.0;80903.0;0
80908;2.0;61.0;6.0;80903;;;0
80959;0.0;1.0;0.0;80955;80931.0;80987.0;0
81043;0.0;1.0;0.0;81040;81015.0;81071.0;0
81127;0.0;1.0;0.0;81123;81099.0;81154.0;0
81208;0.0;1.0;0.0;81205;81181.0;81225.0;0
81260;0.0;1.0;0.0;81257;81242.0;81290.0;0
81293;2.0;61.0;6.0;81288;;;0
81350;0.0;1.0;0.0;81347;81320.0;81379.0;0
81384;2.0;62.0;6.0;81380;;;0
81439;0.0;1.0;0.0;81436;81409.0;81466.0;0
81521;0.0;1.0;0.0;81518;81493.0;81548.0;0
81603;0.0;1.0;0.0;81600;81575.0;81620.0;0
81655;0.0;1.0;0.0;81652;81637.0;81680.0;0
81732;0.0;1.0;0.0;81728;81706.0;81761.0;0
81764;2.0;61.0;6.0;81759;;;0
81821;0.0;1.0;0.0;81818;81791.0;81849.0;0
81854;2.0;61.0;6.0;81849;;;0
81907;0.0;1.0;0.0;81903;81878.0;81935.0;0
81940;2.0;61.0;6.0;81935;;;0
81992;0.0;1.0;0.0;81988;81963.0;82019.0;0
82075;0.0;1.0;0.0;82072;82047.0;82102.0;0
82157;0.0;1.0;0.0;82154;82129.0;82184.0;0
82240;0.0;1.0;0.0;82236;82212.0;82267.0;0
82323;0.0;1.0;0.0;82320;82295.0;82350.0;0
82366;2.0;61.0;6.0;82365;;;0
82406;0.0;1.0;0.0;82403;82378.0;82433.0;0
82438;2.0;61.0;6.0;82434;;;0
82489;0.0;1.0;0.0;82486;82461.0;82516.0;0
82571;0.0;1.0;0.0;82568;82543.0;82599.0;0
82605;2.0;61.0;6.0;82600;;;0
82655;0.0;1.0;0.0;82652;82627.0;82683.0;0
82739;0.0;1.0;0.0;82735;82711.0;82766.0;0
82821;0.0;1.0;0.0;82818;82793.0;82848.0;0
82904;0.0;1.0;0.0;82901;82876.0;82921.0;0
82957;0.0;1.0;0.0;82953;82939.0;82987.0;0
82993;2.0;61.0;6.0;82992;;;0
83049;0.0;1.0;0.0;83046;83018.0;83079.0;0
83086;2.0;62.0;6.0;83081;;;0
83139;0.0;1.0;0.0;83136;83109.0;83160.0;0
83202;0.0;1.0;0.0;83198;83181.0;83219.0;0
83253;0.0;1.0;0.0;83250;83236.0;83283.0;0
83283;2.0;62.0;6.0;83278;;;0
83344;0.0;1.0;0.0;83340;83313.0;83375.0;0
83438;0.0;1.0;0.0;83435;83406.0;83467.0;0
83525;0.0;1.0;0.0;83521;83496.0;83553.0;0
83610;0.0;1.0;0.0;83607;83581.0;83638.0;0
83696;0.0;1.0;0.0;83693;83667.0;83724.0;0
83780;0.0;1.0;0.0;83776;83752.0;83807.0;0
83863;0.0;1.0;0.0;83859;83835.0;83880.0;0
83916;0.0;1.0;0.0;83912;83898.0;83946.0;0
84007;0.0;1.0;0.0;84004;83976.0;84037.0;0
84040;2.0;61.0;6.0;84035;;;0
84098;0.0;1.0;0.0;84095;84067.0;84126.0;0
84183;0.0;1.0;0.0;84180;84154.0;84211.0;0
84267;0.0;1.0;0.0;84264;84239.0;84295.0;0
84353;0.0;1.0;0.0;84349;84324.0;84380.0;0
84436;0.0;1.0;0.0;84433;84408.0;84463.0;0
84519;0.0;1.0;0.0;84516;84491.0;84546.0;0
84602;0.0;1.0;0.0;84599;84574.0;84629.0;0
84636;2.0;61.0;6.0;84632;;;0
84685;0.0;1.0;0.0;84682;84657.0;84712.0;0
84768;0.0;1.0;0.0;84765;84740.0;84795.0;0
84802;2.0;61.0;6.0;84797;;;0
84850;0.0;1.0;0.0;84847;84822.0;84867.0;0
84902;0.0;1.0;0.0;84899;84884.0;84932.0;0
84993;0.0;1.0;0.0;84990;84962.0;85023.0;0
85083;0.0;1.0;0.0;85079;85053.0;85103.0;0
85143;0.0;1.0;0.0;85140;85123.0;85174.0;0
85236;0.0;1.0;0.0;85233;85205.0;85265.0;0
85280;2.0;62.0;6.0;85280;;;0
85324;0.0;1.0;0.0;85320;85294.0;85352.0;0
85408;0.0;1.0;0.0;85404;85380.0;85435.0;0
85489;0.0;1.0;0.0;85486;85462.0;85516.0;0
85571;0.0;1.0;0.0;85568;85543.0;85598.0;0
85654;0.0;1.0;0.0;85651;85626.0;85681.0;0
85737;0.0;1.0;0.0;85733;85709.0;85764.0;0
85818;0.0;1.0;0.0;85814;85791.0;85835.0;0
85870;0.0;1.0;0.0;85866;85852.0;85900.0;0
85912;2.0;61.0;6.0;85912;;;0
85962;0.0;1.0;0.0;85959;85931.0;85991.0;0
85999;2.0;61.0;6.0;85994;;;0
86051;0.0;1.0;0.0;86048;86021.0;86078.0;0
86089;2.0;61.0;6.0;86084;;;0
86134;0.0;1.0;0.0;86131;86106.0;86162.0;0
86168;2.0;61.0;6.0;86163;;;0
86218;0.0;1.0;0.0;86214;86190.0;86246.0;0
86302;0.0;1.0;0.0;86298;86274.0;86329.0;0
86384;0.0;1.0;0.0;86380;86356.0;86410.0;0
86464;0.0;1.0;0.0;86461;86437.0;86481.0;0
86517;0.0;1.0;0.0;86513;86499.0;86546.0;0
86551;2.0;61.0;6.0;86546;;;0
86606;0.0;1.0;0.0;86603;86576.0;86636.0;0
86696;0.0;1.0;0.0;86693;86666.0;86724.0;0
86780;0.0;1.0;0.0;86776;86752.0;86807.0;0
86863;0.0;1.0;0.0;86859;86835.0;86890.0;0
86946;0.0;1.0;0.0;86942;86918.0;86973.0;0
87028;0.0;1.0;0.0;87025;87000.0;87055.0;0
87110;0.0;1.0;0.0;87107;87082.0;87137.0;0
87144;2.0;61.0;6.0;87139;;;0
87192;0.0;1.0;0.0;87189;87164.0;87219.0;0
87225;2.0;61.0;6.0;87223;;;0
87275;0.0;1.0;0.0;87272;87247.0;87302.0;0
87311;2.0;61.0;6.0;87307;;;0
87358;0.0;1.0;0.0;87355;87330.0;87385.0;0
87440;0.0;1.0;0.0;87436;87412.0;87457.0;0
87492;0.0;1.0;0.0;87488;87474.0;87522.0;0
87531;2.0;61.0;6.0;87531;;;0
87582;0.0;1.0;0.0;87579;87552.0;87612.0;0
87672;0.0;1.0;0.0;87669;87642.0;87692.0;0
87734;0.0;1.0;0.0;87731;87713.0;87765.0;0
87827;0.0;1.0;0.0;87823;87796.0;87856.0;0
87862;2.0;61.0;6.0;87857;;;0
87914;0.0;1.0;0.0;87911;87885.0;87931.0;0
87967;0.0;1.0;0.0;87964;87949.0;87995.0;0
88053;0.0;1.0;0.0;88049;88024.0;88081.0;0
88088;2.0;61.0;6.0;88083;;;0
88139;0.0;1.0;0.0;88136;88110.0;88155.0;0
88189;0.0;1.0;0.0;88186;88172.0;88220.0;0
88223;2.0;61.0;6.0;88218;;;0
88283;0.0;1.0;0.0;88280;88251.0;88304.0;0
88348;0.0;1.0;0.0;88345;88326.0;88364.0;0
88396;0.0;1.0;0.0;88393;88380.0;88416.0;0
88456;0.0;1.0;0.0;88453;88436.0;88473.0;0
88507;0.0;1.0;0.0;88504;88490.0;88537.0;0
88539;2.0;61.0;6.0;88534;;;0
88599;0.0;1.0;0.0;88596;88568.0;88629.0;0
88633;2.0;61.0;6.0;88628;;;0
88690;0.0;1.0;0.0;88687;88659.0;88707.0;0
88743;0.0;1.0;0.0;88740;88725.0;88775.0;0
88840;0.0;1.0;0.0;88836;88807.0;88870.0;0
88930;0.0;1.0;0.0;88927;88900.0;88950.0;0
88991;0.0;1.0;0.0;88988;88970.0;89022.0;0
89085;0.0;1.0;0.0;89082;89053.0;89114.0;0
89172;0.0;1.0;0.0;89169;89143.0;89200.0;0
89257;0.0;1.0;0.0;89254;89228.0;89284.0;0
89297;2.0;61.0;6.0;89296;;;0
89340;0.0;1.0;0.0;89336;89312.0;89367.0;0
89422;0.0;1.0;0.0;89419;89394.0;89446.0;0
89495;0.0;1.0;0.0;89492;89470.0;89524.0;0
89582;0.0;1.0;0.0;89579;89553.0;89609.0;0
89665;0.0;1.0;0.0;89662;89637.0;89692.0;0
89698;2.0;61.0;6.0;89695;;;0
89748;0.0;1.0;0.0;89745;89720.0;89775.0;0
89789;2.0;61.0;6.0;89789;;;0
89831;0.0;1.0;0.0;89827;89803.0;89848.0;0
89882;0.0;1.0;0.0;89878;89865.0;89908.0;0
89914;2.0;61.0;6.0;89909;;;0
89961;0.0;1.0;0.0;89957;89934.0;89978.0;0
90014;0.0;1.0;0.0;90011;89996.0;90045.0;0
90107;0.0;1.0;0.0;90104;90076.0;90136.0;0
90142;2.0;61.0;6.0;90137;;;0
90196;0.0;1.0;0.0;90193;90166.0;90224.0;0
90282;0.0;1.0;0.0;90279;90253.0;90309.0;0
90317;2.0;61.0;6.0;90312;;;0
90365;0.0;1.0;0.0;90362;90337.0;90392.0;0
90447;0.0;1.0;0.0;90444;90419.0;90475.0;0
90531;0.0;1.0;0.0;90527;90503.0;90558.0;0
90613;0.0;1.0;0.0;90610;90585.0;90631.0;0
90668;0.0;1.0;0.0;90665;90649.0;90698.0;0
90760;0.0;1.0;0.0;90757;90729.0;90781.0;0
90825;0.0;1.0;0.0;90821;90803.0;90856.0;0
90865;2.0;61.0;6.0;90865;;;0
90919;0.0;1.0;0.0;90915;90887.0;90947.0;0
91003;0.0;1.0;0.0;91000;90975.0;91021.0;0
91057;0.0;1.0;0.0;91054;91039.0;91086.0;0
91144;0.0;1.0;0.0;91141;91115.0;91174.0;0
91234;0.0;1.0;0.0;91231;91204.0;91262.0;0
91276;2.0;61.0;6.0;91276;;;0
91318;0.0;1.0;0.0;91315;91290.0;91345.0;0
91401;0.0;1.0;0.0;91398;91373.0;91418.0;0
91454;0.0;1.0;0.0;91450;91436.0;91480.0;0
91532;0.0;1.0;0.0;91528;91506.0;91553.0;0
91596;0.0;1.0;0.0;91593;91574.0;91612.0;0
91644;0.0;1.0;0.0;91641;91628.0;91660.0;0
91694;0.0;1.0;0.0;91691;91677.0;91726.0;0
91792;0.0;1.0;0.0;91788;91759.0;91822.0;0
91883;0.0;1.0;0.0;91879;91852.0;91903.0;0
91943;0.0;1.0;0.0;91940;91923.0;91975.0;0
92039;0.0;1.0;0.0;92035;92007.0;92068.0;0
92080;2.0;62.0;6.0;92080;;;0
92127;0.0;1.0;0.0;92124;92097.0;92155.0;0
92160;2.0;61.0;6.0;92156;;;0
92212;0.0;1.0;0.0;92209;92183.0;92239.0;0
92295;0.0;1.0;0.0;92292;92267.0;92322.0;0
92378;0.0;1.0;0.0;92375;92350.0;92406.0;0
92462;0.0;1.0;0.0;92459;92434.0;92489.0;0
92545;0.0;1.0;0.0;92542;92517.0;92572.0;0
92627;0.0;1.0;0.0;92623;92599.0;92654.0;0
92708;0.0;1.0;0.0;92705;92681.0;92729.0;0
92771;0.0;1.0;0.0;92768;92750.0;92800.0;0
92859;0.0;1.0;0.0;92856;92829.0;92888.0;0
92896;2.0;62.0;6.0;92891;;;0
92946;0.0;1.0;0.0;92943;92917.0;92973.0;0
93029;0.0;1.0;0.0;93025;93001.0;93056.0;0
93112;0.0;1.0;0.0;93109;93084.0;93140.0;0
93196;0.0;1.0;0.0;93193;93168.0;93223.0;0
93278;0.0;1.0;0.0;93274;93250.0;93305.0;0
93360;0.0;1.0;0.0;93356;93332.0;93377.0;0
93412;0.0;1.0;0.0;93408;93394.0;93442.0;0
93465;2.0;62.0;6.0;93462;;;0
93504;0.0;1.0;0.0;93500;93473.0;93533.0;0
93538;2.0;62.0;6.0;93533;;;0
93592;0.0;1.0;0.0;93588;93562.0;93620.0;0
93676;0.0;1.0;0.0;93672;93648.0;93704.0;0
93761;0.0;1.0;0.0;93758;93732.0;93789.0;0
93846;0.0;1.0;0.0;93842;93817.0;93873.0;0
93879;2.0;62.0;6.0;93874;;;0
93928;0.0;1.0;0.0;93925;93900.0;93955.0;0
94011;0.0;1.0;0.0;94008;93983.0;94039.0;0
94095;0.0;1.0;0.0;94092;94067.0;94122.0;0
94178;0.0;1.0;0.0;94175;94150.0;94205.0;0
94260;0.0;1.0;0.0;94256;94232.0;94287.0;0
94294;2.0;61.0;6.0;94289;;;0
94342;0.0;1.0;0.0;94339;94314.0;94370.0;0
94426;0.0;1.0;0.0;94423;94398.0;94453.0;0
94509;0.0;1.0;0.0;94506;94481.0;94536.0;0
94591;0.0;1.0;0.0;94588;94563.0;94618.0;0
94626;2.0;61.0;6.0;94621;;;0
94674;0.0;1.0;0.0;94670;94646.0;94697.0;0
94744;0.0;1.0;0.0;94741;94720.0;94763.0;0
94803;0.0;1.0;0.0;94800;94783.0;94834.0;0
94836;2.0;61.0;6.0;94832;;;0
94898;0.0;1.0;0.0;94895;94866.0;94927.0;0
94935;2.0;62.0;6.0;94930;;;0
94986;0.0;1.0;0.0;94983;94956.0;95007.0;0
95051;0.0;1.0;0.0;95048;95029.0;95083.0;0
95148;0.0;1.0;0.0;95145;95115.0;95178.0;0
95238;0.0;1.0;0.0;95234;95208.0;95258.0;0
95300;0.0;1.0;0.0;95297;95279.0;95324.0;0
95372;0.0;1.0;0.0;95369;95348.0;95401.0;0
95406;2.0;62.0;6.0;95401;;;0
95459;0.0;1.0;0.0;95456;95430.0;95489.0;0
95551;0.0;1.0;0.0;95547;95520.0;95579.0;0
95635;0.0;1.0;0.0;95632;95607.0;95651.0;0
95685;0.0;2.0;0.0;95682;95668.0;95716.0;0
95780;0.0;1.0;0.0;95777;95748.0;95810.0;0
95816;2.0;62.0;6.0;95811;;;0
95871;0.0;1.0;0.0;95867;95840.0;95892.0;0
95935;0.0;1.0;0.0;95932;95913.0;95959.0;0
96007;0.0;1.0;0.0;96003;95983.0;96035.0;0
96093;0.0;1.0;0.0;96090;96064.0;96123.0;0
96184;0.0;1.0;0.0;96180;96153.0;96206.0;0
96251;0.0;1.0;0.0;96248;96228.0;96282.0;0
96283;2.0;61.0;6.0;96278;;;0
96345;0.0;1.0;0.0;96342;96313.0;96374.0;0
96433;0.0;1.0;0.0;96430;96403.0;96461.0;0
96476;2.0;62.0;6.0;96476;;;0
96519;0.0;1.0;0.0;96515;96490.0;96546.0;0
96551;2.0;61.0;6.0;96546;;;0
96602;0.0;1.0;0.0;96599;96574.0;96630.0;0
96637;2.0;62.0;6.0;96632;;;0
96686;0.0;1.0;0.0;96682;96658.0;96714.0;0
96770;0.0;1.0;0.0;96767;96742.0;96798.0;0
96854;0.0;1.0;0.0;96851;96826.0;96881.0;0
96895;2.0;62.0;6.0;96895;;;0
96937;0.0;1.0;0.0;96934;96909.0;96964.0;0
96969;2.0;61.0;6.0;96965;;;0
97020;0.0;1.0;0.0;97016;96992.0;97037.0;0
97072;0.0;1.0;0.0;97069;97054.0;97103.0;0
97117;2.0;61.0;6.0;97117;;;0
97165;0.0;1.0;0.0;97161;97134.0;97194.0;0
97252;0.0;1.0;0.0;97248;97223.0;97269.0;0
97303;0.0;1.0;0.0;97300;97286.0;97334.0;0
97342;2.0;61.0;6.0;97342;;;0
97398;0.0;1.0;0.0;97395;97366.0;97428.0;0
97488;0.0;1.0;0.0;97484;97458.0;97508.0;0
97549;0.0;1.0;0.0;97546;97528.0;97580.0;0
97581;2.0;61.0;6.0;97576;;;0
97643;0.0;1.0;0.0;97639;97611.0;97663.0;0
97704;0.0;1.0;0.0;97701;97683.0;97735.0;0
97797;0.0;1.0;0.0;97794;97766.0;97826.0;0
97885;0.0;1.0;0.0;97881;97855.0;97912.0;0
97968;0.0;1.0;0.0;97964;97940.0;97996.0;0
98007;2.0;61.0;6.0;98007;;;0
98052;0.0;1.0;0.0;98049;98024.0;98080.0;0
98136;0.0;1.0;0.0;98133;98108.0;98163.0;0
98170;2.0;61.0;6.0;98165;;;0
98218;0.0;1.0;0.0;98215;98190.0;98246.0;0
98302;0.0;1.0;0.0;98298;98274.0;98330.0;0
98387;0.0;1.0;0.0;98384;98358.0;98415.0;0
98471;0.0;1.0;0.0;98468;98443.0;98498.0;0
98553;0.0;1.0;0.0;98550;98525.0;98570.0;0
98605;0.0;1.0;0.0;98602;98587.0;98635.0;0
98650;2.0;61.0;6.0;98650;;;0
98697;0.0;1.0;0.0;98694;98666.0;98727.0;0
98734;2.0;62.0;6.0;98729;;;0
98788;0.0;1.0;0.0;98785;98757.0;98808.0;0
98850;0.0;1.0;0.0;98846;98829.0;98881.0;0
98945;0.0;1.0;0.0;98942;98913.0;98975.0;0
98981;2.0;62.0;6.0;98976;;;0
99035;0.0;1.0;0.0;99032;99005.0;99063.0;0
99121;0.0;1.0;0.0;99117;99092.0;99148.0;0
99155;2.0;61.0;6.0;99150;;;0
99204;0.0;1.0;0.0;99201;99176.0;99231.0;0
99239;2.0;61.0;6.0;99236;;;0
99287;0.0;1.0;0.0;99284;99259.0;99304.0;0
99340;0.0;1.0;0.0;99336;99322.0;99371.0;0
99384;2.0;61.0;6.0;99384;;;0
99433;0.0;1.0;0.0;99429;99402.0;99462.0;0
99521;0.0;1.0;0.0;99518;99491.0;99544.0;0
99590;0.0;1.0;0.0;99587;99567.0;99621.0;0
99629;2.0;61.0;6.0;99629;;;0
99685;0.0;1.0;0.0;99681;99653.0;99714.0;0
99772;0.0;1.0;0.0;99768;99743.0;99792.0;0
99833;0.0;1.0;0.0;99830;99812.0;99857.0;0
99905;0.0;1.0;0.0;99902;99881.0;99934.0;0
99946;2.0;61.0;6.0;99946;;;0
99992;0.0;1.0;0.0;99989;99963.0;100022.0;0
100033;2.0;61.0;6.0;100033;;;0
100083;0.0;1.0;0.0;100080;100052.0;100111.0;0
100167;0.0;1.0;0.0;100164;100139.0;100195.0;0
100251;0.0;1.0;0.0;100248;100223.0;100279.0;0
100297;2.0;61.0;6.0;100297;;;0
100336;0.0;1.0;0.0;100333;100307.0;100353.0;0
100388;0.0;1.0;0.0;100385;100370.0;100416.0;0
100474;0.0;1.0;0.0;100471;100445.0;100503.0;0
100517;2.0;62.0;6.0;100517;;;0
100562;0.0;1.0;0.0;100559;100532.0;100590.0;0
100597;2.0;62.0;6.0;100592;;;0
100647;0.0;1.0;0.0;100644;100618.0;100667.0;0
100709;0.0;1.0;0.0;100705;100688.0;100740.0;0
100754;2.0;61.0;6.0;100754;;;0
100802;0.0;1.0;0.0;100798;100771.0;100830.0;0
100887;0.0;1.0;0.0;100884;100858.0;100908.0;0
100950;0.0;1.0;0.0;100947;100929.0;100975.0;0
100988;2.0;61.0;6.0;100988;;;0
101026;0.0;1.0;0.0;101023;101000.0;101043.0;0
101077;0.0;1.0;0.0;101074;101060.0;101108.0;0
101170;0.0;1.0;0.0;101167;101139.0;101199.0;0
101208;2.0;62.0;6.0;101203;;;0
101258;0.0;1.0;0.0;101255;101228.0;101286.0;0
101294;2.0;61.0;6.0;101289;;;0
101344;0.0;1.0;0.0;101341;101315.0;101372.0;0
101376;2.0;61.0;6.0;101371;;;0
101428;0.0;1.0;0.0;101425;101400.0;101455.0;0
101510;0.0;1.0;0.0;101506;101482.0;101527.0;0
101562;0.0;1.0;0.0;101559;101544.0;101592.0;0
101601;2.0;61.0;6.0;101601;;;0
101652;0.0;1.0;0.0;101649;101622.0;101681.0;0
101741;0.0;1.0;0.0;101738;101711.0;101762.0;0
101805;0.0;1.0;0.0;101801;101783.0;101836.0;0
101898;0.0;1.0;0.0;101895;101867.0;101920.0;0
101965;0.0;1.0;0.0;101962;101942.0;101996.0;0
102059;0.0;1.0;0.0;102056;102027.0;102087.0;0
102145;0.0;1.0;0.0;102141;102116.0;102172.0;0
102227;0.0;1.0;0.0;102224;102199.0;102255.0;0
102263;2.0;61.0;6.0;102259;;;0
102311;0.0;1.0;0.0;102308;102283.0;102328.0;0
102363;0.0;1.0;0.0;102360;102345.0;102393.0;0
102454;0.0;1.0;0.0;102451;102423.0;102482.0;0
102489;2.0;61.0;6.0;102484;;;0
102539;0.0;1.0;0.0;102536;102510.0;102567.0;0
102585;2.0;62.0;6.0;102585;;;0
102623;0.0;1.0;0.0;102620;102595.0;102651.0;0
102708;0.0;1.0;0.0;102705;102679.0;102735.0;0
102790;0.0;1.0;0.0;102787;102762.0;102807.0;0
102842;0.0;1.0;0.0;102839;102824.0;102871.0;0
102874;2.0;61.0;6.0;102869;;;0
102929;0.0;1.0;0.0;102926;102900.0;102959.0;0
102964;2.0;62.0;6.0;102959;;;0
103020;0.0;1.0;0.0;103017;102989.0;103048.0;0
103104;0.0;1.0;0.0;103101;103076.0;103131.0;0
103187;0.0;1.0;0.0;103184;103159.0;103215.0;0
103271;0.0;1.0;0.0;103267;103243.0;103299.0;0
103311;2.0;61.0;6.0;103311;;;0
103355;0.0;1.0;0.0;103352;103327.0;103382.0;0
103437;0.0;1.0;0.0;103434;103409.0;103464.0;0
103519;0.0;1.0;0.0;103516;103491.0;103546.0;0
103601;0.0;1.0;0.0;103598;103573.0;103618.0;0
103654;0.0;1.0;0.0;103650;103636.0;103684.0;0
103687;2.0;61.0;6.0;103682;;;0
103745;0.0;1.0;0.0;103742;103714.0;103766.0;0
103809;0.0;1.0;0.0;103806;103787.0;103840.0;0
103843;2.0;61.0;6.0;103838;;;0
103904;0.0;1.0;0.0;103901;103872.0;103933.0;0
103992;0.0;1.0;0.0;103988;103962.0;104009.0;0
104043;0.0;1.0;0.0;104040;104026.0;104072.0;0
104077;2.0;61.0;6.0;104072;;;0
104132;0.0;1.0;0.0;104129;104102.0;104161.0;0
104220;0.0;1.0;0.0;104217;104190.0;104240.0;0
104281;0.0;1.0;0.0;104278;104260.0;104312.0;0
104323;2.0;61.0;6.0;104323;;;0
104374;0.0;1.0;0.0;104371;104343.0;104394.0;0
104434;0.0;1.0;0.0;104430;104414.0;104460.0;0
104512;0.0;1.0;0.0;104509;104486.0;104533.0;0
104577;0.0;1.0;0.0;104574;104555.0;104607.0;0
104667;0.0;1.0;0.0;104663;104637.0;104697.0;0
104701;2.0;62.0;6.0;104696;;;0
104758;0.0;1.0;0.0;104755;104727.0;104778.0;0
104819;0.0;1.0;0.0;104816;104798.0;104851.0;0
104915;0.0;1.0;0.0;104912;104883.0;104944.0;0
105004;0.0;1.0;0.0;105001;104974.0;105032.0;0
105088;0.0;1.0;0.0;105085;105060.0;105111.0;0
105159;0.0;1.0;0.0;105155;105135.0;105183.0;0
105233;0.0;1.0;0.0;105230;105208.0;105266.0;0
105333;0.0;1.0;0.0;105330;105299.0;105360.0;0
105416;0.0;1.0;0.0;105412;105388.0;105443.0;0
105450;2.0;61.0;6.0;105445;;;0
105498;0.0;1.0;0.0;105495;105470.0;105526.0;0
105582;0.0;1.0;0.0;105579;105554.0;105610.0;0
105666;0.0;1.0;0.0;105663;105638.0;105693.0;0
105748;0.0;1.0;0.0;105745;105720.0;105765.0;0
105800;0.0;1.0;0.0;105797;105782.0;105830.0;0
105891;0.0;1.0;0.0;105887;105860.0;105921.0;0
105983;0.0;1.0;0.0;105979;105952.0;106005.0;0
106051;0.0;1.0;0.0;106047;106028.0;106082.0;0
106144;0.0;1.0;0.0;106141;106113.0;106173.0;0
106231;0.0;1.0;0.0;106227;106202.0;106247.0;0
106281;0.0;1.0;0.0;106278;106264.0;106310.0;0
106370;0.0;1.0;0.0;106367;106340.0;106400.0;0
106404;2.0;61.0;6.0;106399;;;0
106460;0.0;1.0;0.0;106456;106430.0;106488.0;0
106544;0.0;1.0;0.0;106541;106516.0;106572.0;0
106588;2.0;62.0;6.0;106584;;;0
106629;0.0;1.0;0.0;106626;106600.0;106657.0;0
106713;0.0;1.0;0.0;106710;106685.0;106740.0;0
106796;0.0;1.0;0.0;106793;106768.0;106823.0;0
106879;0.0;1.0;0.0;106876;106851.0;106907.0;0
106915;2.0;62.0;6.0;106910;;;0
106963;0.0;1.0;0.0;106960;106935.0;106991.0;0
107047;0.0;1.0;0.0;107044;107019.0;107074.0;0
107128;0.0;1.0;0.0;107125;107101.0;107155.0;0
107211;0.0;1.0;0.0;107207;107183.0;107228.0;0
107263;0.0;2.0;0.0;107260;107245.0;107294.0;0
107296;2.0;62.0;6.0;107291;;;0
107356;0.0;1.0;0.0;107353;107325.0;107385.0;0
107444;0.0;2.0;0.0;107441;107414.0;107464.0;0
107505;0.0;2.0;0.0;107501;107484.0;107536.0;0
107539;2.0;62.0;6.0;107534;;;0
107600;0.0;2.0;0.0;107597;107568.0;107630.0;0
107690;0.0;1.0;0.0;107686;107660.0;107706.0;0
107740;0.0;2.0;0.0;107737;107723.0;107769.0;0
107829;0.0;1.0;0.0;107826;107799.0;107858.0;0
107918;0.0;1.0;0.0;107915;107888.0;107946.0;0
108004;0.0;1.0;0.0;108001;107975.0;108032.0;0
108088;0.0;1.0;0.0;108085;108060.0;108115.0;0
108123;2.0;62.0;6.0;108118;;;0
108171;0.0;1.0;0.0;108168;108143.0;108199.0;0
108255;0.0;1.0;0.0;108252;108227.0;108283.0;0
108339;0.0;1.0;0.0;108336;108311.0;108366.0;0
108422;0.0;1.0;0.0;108419;108394.0;108439.0;0
108475;0.0;1.0;0.0;108472;108457.0;108505.0;0
108507;2.0;62.0;6.0;108503;;;0
108567;0.0;1.0;0.0;108564;108536.0;108597.0;0
108657;0.0;1.0;0.0;108654;108627.0;108685.0;0
108743;0.0;1.0;0.0;108739;108714.0;108770.0;0
108826;0.0;1.0;0.0;108823;108798.0;108854.0;0
108910;0.0;1.0;0.0;108906;108882.0;108938.0;0
108994;0.0;1.0;0.0;108991;108966.0;109011.0;0
109047;0.0;1.0;0.0;109043;109029.0;109077.0;0
109080;2.0;61.0;6.0;109075;;;0
109137;0.0;1.0;0.0;109134;109107.0;109166.0;0
109174;2.0;61.0;6.0;109169;;;0
109224;0.0;1.0;0.0;109221;109195.0;109252.0;0
109259;2.0;61.0;6.0;109254;;;0
109309;0.0;1.0;0.0;109306;109280.0;109337.0;0
109344;2.0;61.0;6.0;109340;;;0
109394;0.0;1.0;0.0;109391;109365.0;109414.0;0
109455;0.0;1.0;0.0;109452;109434.0;109486.0;0
109494;2.0;61.0;6.0;109494;;;0
109548;0.0;1.0;0.0;109545;109517.0;109577.0;0
109637;0.0;1.0;0.0;109633;109607.0;109665.0;0
109672;2.0;61.0;6.0;109667;;;0
109721;0.0;1.0;0.0;109718;109693.0;109748.0;0
109804;0.0;1.0;0.0;109801;109776.0;109821.0;0
109857;0.0;1.0;0.0;109853;109839.0;109887.0;0
109890;2.0;61.0;6.0;109885;;;0
109948;0.0;1.0;0.0;109944;109917.0;109978.0;0
110039;0.0;1.0;0.0;110035;110008.0;110062.0;0
110108;0.0;1.0;0.0;110104;110085.0;110139.0;0
110201;0.0;1.0;0.0;110198;110170.0;110230.0;0
110237;2.0;61.0;6.0;110232;;;0
110288;0.0;1.0;0.0;110285;110259.0;110316.0;0
110373;0.0;1.0;0.0;110370;110344.0;110401.0;0
110457;0.0;1.0;0.0;110454;110429.0;110484.0;0
110540;0.0;1.0;0.0;110537;110512.0;110568.0;0
110624;0.0;1.0;0.0;110621;110596.0;110652.0;0
110667;2.0;62.0;6.0;110667;;;0
110708;0.0;1.0;0.0;110705;110680.0;110735.0;0
110741;2.0;61.0;6.0;110737;;;0
110791;0.0;1.0;0.0;110787;110763.0;110818.0;0
110873;0.0;1.0;0.0;110870;110845.0;110890.0;0
110926;0.0;1.0;0.0;110922;110908.0;110957.0;0
111019;0.0;1.0;0.0;111016;110988.0;111048.0;0
111107;0.0;1.0;0.0;111104;111077.0;111128.0;0
111171;0.0;1.0;0.0;111168;111149.0;111187.0;0
111219;0.0;1.0;0.0;111216;111203.0;111238.0;0
111278;0.0;1.0;0.0;111275;111258.0;111298.0;0
111339;0.0;1.0;0.0;111336;111318.0;111371.0;0
111436;0.0;1.0;0.0;111433;111403.0;111466.0;0
111470;2.0;61.0;6.0;111465;;;0
111526;0.0;1.0;0.0;111523;111496.0;111555.0;0
111614;0.0;1.0;0.0;111611;111584.0;111642.0;0
111700;0.0;1.0;0.0;111697;111671.0;111728.0;0
111784;0.0;1.0;0.0;111781;111756.0;111812.0;0
111869;0.0;1.0;0.0;111865;111840.0;111897.0;0
111954;0.0;1.0;0.0;111951;111925.0;111971.0;0
112006;0.0;1.0;0.0;112003;111988.0;112036.0;0
112098;0.0;1.0;0.0;112094;112067.0;112127.0;0
112186;0.0;1.0;0.0;112183;112156.0;112214.0;0
112272;0.0;1.0;0.0;112269;112243.0;112300.0;0
112356;0.0;1.0;0.0;112353;112328.0;112383.0;0
112389;2.0;61.0;6.0;112384;;;0
112439;0.0;1.0;0.0;112436;112411.0;112467.0;0
112523;0.0;1.0;0.0;112520;112495.0;112540.0;0
112574;0.0;1.0;0.0;112571;112557.0;112604.0;0
112666;0.0;1.0;0.0;112662;112635.0;112695.0;0
112700;2.0;62.0;6.0;112695;;;0
112755;0.0;1.0;0.0;112752;112725.0;112776.0;0
112820;0.0;1.0;0.0;112817;112798.0;112851.0;0
112915;0.0;1.0;0.0;112912;112883.0;112935.0;0
112976;0.0;1.0;0.0;112973;112955.0;113000.0;0
113050;0.0;1.0;0.0;113047;113025.0;113079.0;0
113085;2.0;61.0;6.0;113081;;;0
113139;0.0;1.0;0.0;113135;113109.0;113168.0;0
113183;2.0;61.0;6.0;113183;;;0
113227;0.0;1.0;0.0;113224;113197.0;113255.0;0
113313;0.0;1.0;0.0;113310;113284.0;113341.0;0
113397;0.0;1.0;0.0;113393;113369.0;113424.0;0
113479;0.0;1.0;0.0;113476;113451.0;113496.0;0
113531;0.0;1.0;0.0;113528;113513.0;113560.0;0
113620;0.0;1.0;0.0;113616;113590.0;113649.0;0
113662;2.0;62.0;6.0;113662;;;0
113709;0.0;1.0;0.0;113706;113679.0;113729.0;0
113770;0.0;1.0;0.0;113767;113749.0;113801.0;0
113864;0.0;1.0;0.0;113860;113832.0;113893.0;0
113952;0.0;1.0;0.0;113949;113922.0;113975.0;0
114021;0.0;1.0;0.0;114018;113998.0;114051.0;0
114068;2.0;62.0;6.0;114063;;;0
114112;0.0;1.0;0.0;114109;114081.0;114140.0;0
114147;2.0;62.0;6.0;114142;;;0
114196;0.0;1.0;0.0;114193;114168.0;114224.0;0
114232;2.0;62.0;6.0;114227;;;0
114281;0.0;1.0;0.0;114278;114252.0;114308.0;0
114315;2.0;62.0;6.0;114310;;;0
114364;0.0;1.0;0.0;114361;114336.0;114391.0;0
114446;0.0;1.0;0.0;114443;114418.0;114463.0;0
114498;0.0;1.0;0.0;114495;114480.0;114529.0;0
114592;0.0;1.0;0.0;114589;114560.0;114621.0;0
114680;0.0;1.0;0.0;114677;114650.0;114703.0;0
114749;0.0;1.0;0.0;114745;114726.0;114780.0;0
114793;2.0;61.0;6.0;114790;;;0
114842;0.0;1.0;0.0;114839;114811.0;114871.0;0
114930;0.0;1.0;0.0;114926;114900.0;114957.0;0
114964;2.0;61.0;6.0;114959;;;0
115013;0.0;1.0;0.0;115010;114985.0;115040.0;0
115096;0.0;1.0;0.0;115092;115068.0;115116.0;0
115157;0.0;1.0;0.0;115154;115136.0;115184.0;0
115239;0.0;1.0;0.0;115236;115211.0;115261.0;0
115307;0.0;1.0;0.0;115304;115284.0;115338.0;0
115339;2.0;61.0;6.0;115334;;;0
115401;0.0;1.0;0.0;115397;115369.0;115430.0;0
115435;2.0;62.0;6.0;115430;;;0
115489;0.0;1.0;0.0;115486;115459.0;115517.0;0
115575;0.0;1.0;0.0;115572;115546.0;115602.0;0
115658;0.0;1.0;0.0;115655;115630.0;115678.0;0
115720;0.0;1.0;0.0;115717;115699.0;115747.0;0
115802;0.0;1.0;0.0;115799;115774.0;115832.0;0
115835;2.0;62.0;6.0;115831;;;0
115892;0.0;1.0;0.0;115889;115862.0;115912.0;0
115953;0.0;1.0;0.0;115950;115932.0;115985.0;0
116049;0.0;1.0;0.0;116045;116017.0;116078.0;0
116091;2.0;62.0;6.0;116091;;;0
116138;0.0;1.0;0.0;116135;116108.0;116166.0;0
116171;2.0;61.0;6.0;116167;;;0
116224;0.0;1.0;0.0;116221;116195.0;116252.0;0
116308;0.0;1.0;0.0;116304;116280.0;116335.0;0
116391;0.0;1.0;0.0;116387;116363.0;116419.0;0
116475;0.0;1.0;0.0;116472;116447.0;116502.0;0
116557;0.0;1.0;0.0;116554;116529.0;116584.0;0
116640;0.0;1.0;0.0;116636;116612.0;116657.0;0
116691;0.0;1.0;0.0;116688;116674.0;116722.0;0
116785;0.0;1.0;0.0;116781;116753.0;116814.0;0
116820;2.0;62.0;6.0;116815;;;0
116873;0.0;1.0;0.0;116870;116843.0;116893.0;0
116935;0.0;1.0;0.0;116932;116914.0;116966.0;0
117029;0.0;1.0;0.0;117025;116997.0;117049.0;0
117089;0.0;1.0;0.0;117085;117069.0;117113.0;0
117161;0.0;1.0;0.0;117158;117137.0;117190.0;0
117194;2.0;61.0;6.0;117189;;;0
117249;0.0;1.0;0.0;117245;117219.0;117278.0;0
117285;2.0;61.0;6.0;117280;;;0
117337;0.0;1.0;0.0;117334;117307.0;117366.0;0
117378;2.0;61.0;6.0;117378;;;0
117424;0.0;1.0;0.0;117421;117395.0;117452.0;0
117509;0.0;1.0;0.0;117505;117480.0;117536.0;0
117591;0.0;1.0;0.0;117588;117563.0;117618.0;0
117674;0.0;1.0;0.0;117671;117646.0;117692.0;0
117730;0.0;1.0;0.0;117727;117711.0;117759.0;0
117817;0.0;1.0;0.0;117814;117788.0;117839.0;0
117885;0.0;1.0;0.0;117882;117862.0;117917.0;0
117981;0.0;1.0;0.0;117977;117949.0;118010.0;0
118017;2.0;61.0;6.0;118014;;;0
118070;0.0;1.0;0.0;118067;118040.0;118087.0;0
118121;0.0;1.0;0.0;118118;118104.0;118148.0;0
118204;0.0;1.0;0.0;118200;118176.0;118234.0;0
118239;2.0;62.0;6.0;118235;;;0
118295;0.0;1.0;0.0;118292;118264.0;118324.0;0
118383;0.0;1.0;0.0;118380;118353.0;118411.0;0
118468;0.0;1.0;0.0;118465;118439.0;118489.0;0
118532;0.0;1.0;0.0;118528;118510.0;118563.0;0
118625;0.0;1.0;0.0;118622;118594.0;118654.0;0
118660;2.0;62.0;6.0;118655;;;0
118713;0.0;1.0;0.0;118710;118683.0;118741.0;0
118798;0.0;1.0;0.0;118795;118769.0;118826.0;0
118882;0.0;1.0;0.0;118879;118854.0;118909.0;0
118915;2.0;61.0;6.0;118910;;;0
118965;0.0;1.0;0.0;118962;118937.0;118993.0;0
119049;0.0;1.0;0.0;119046;119021.0;119077.0;0
119133;0.0;1.0;0.0;119130;119105.0;119160.0;0
119216;0.0;1.0;0.0;119212;119188.0;119233.0;0
119268;0.0;1.0;0.0;119264;119250.0;119298.0;0
119358;0.0;1.0;0.0;119355;119328.0;119388.0;0
119402;2.0;61.0;6.0;119402;;;0
119450;0.0;1.0;0.0;119447;119419.0;119467.0;0
119503;0.0;1.0;0.0;119500;119485.0;119534.0;0
119598;0.0;1.0;0.0;119595;119566.0;119618.0;0
119659;0.0;1.0;0.0;119655;119638.0;119691.0;0
119702;2.0;61.0;6.0;119702;;;0
119757;0.0;1.0;0.0;119754;119724.0;119787.0;0
119847;0.0;1.0;0.0;119843;119817.0;119875.0;0
119883;2.0;61.0;6.0;119878;;;0
119931;0.0;1.0;0.0;119928;119903.0;119948.0;0
119982;0.0;1.0;0.0;119979;119965.0;120013.0;0
120075;0.0;1.0;0.0;120072;120044.0;120104.0;0
120164;0.0;1.0;0.0;120161;120134.0;120192.0;0
120249;0.0;1.0;0.0;120245;120220.0;120277.0;0
120333;0.0;1.0;0.0;120330;120305.0;120361.0;0
120418;0.0;1.0;0.0;120414;120389.0;120445.0;0
120501;0.0;1.0;0.0;120498;120473.0;120528.0;0
120583;0.0;1.0;0.0;120580;120555.0;120600.0;0
120635;0.0;1.0;0.0;120632;120617.0;120665.0;0
120725;0.0;1.0;0.0;120722;120695.0;120755.0;0
120762;2.0;61.0;6.0;120758;;;0
120816;0.0;1.0;0.0;120812;120785.0;120844.0;0
120900;0.0;1.0;0.0;120897;120872.0;120927.0;0
120983;0.0;1.0;0.0;120980;120955.0;121000.0;0
121035;0.0;1.0;0.0;121032;121017.0;121059.0;0
121109;0.0;1.0;0.0;121106;121084.0;121139.0;0
121143;2.0;61.0;6.0;121138;;;0
121199;0.0;1.0;0.0;121196;121169.0;121228.0;0
121286;0.0;1.0;0.0;121283;121257.0;121314.0;0
121370;0.0;1.0;0.0;121367;121342.0;121387.0;0
121421;0.0;1.0;0.0;121418;121404.0;121452.0;0
121515;0.0;1.0;0.0;121511;121483.0;121543.0;0
121601;0.0;1.0;0.0;121598;121572.0;121629.0;0
121685;0.0;1.0;0.0;121682;121657.0;121713.0;0
121770;0.0;1.0;0.0;121767;121741.0;121798.0;0
121854;0.0;1.0;0.0;121850;121826.0;121881.0;0
121936;0.0;1.0;0.0;121933;121908.0;121953.0;0
121988;0.0;1.0;0.0;121985;121970.0;122018.0;0
122079;0.0;1.0;0.0;122076;122048.0;122108.0;0
122116;2.0;62.0;6.0;122111;;;0
122168;0.0;1.0;0.0;122165;122138.0;122188.0;0
122230;0.0;1.0;0.0;122227;122209.0;122261.0;0
122265;2.0;61.0;6.0;122260;;;0
122323;0.0;1.0;0.0;122320;122292.0;122343.0;0
122383;0.0;1.0;0.0;122380;122363.0;122414.0;0
122427;2.0;61.0;6.0;122426;;;0
122477;0.0;1.0;0.0;122474;122445.0;122506.0;0
122509;2.0;62.0;6.0;122504;;;0
122565;0.0;1.0;0.0;122562;122535.0;122593.0;0
122649;0.0;1.0;0.0;122646;122621.0;122672.0;0
122720;0.0;1.0;0.0;122717;122696.0;122748.0;0
122804;0.0;1.0;0.0;122801;122776.0;122832.0;0
122840;2.0;62.0;6.0;122835;;;0
122888;0.0;1.0;0.0;122885;122860.0;122915.0;0
122970;0.0;1.0;0.0;122967;122942.0;122997.0;0
123051;0.0;1.0;0.0;123048;123024.0;123078.0;0
123084;2.0;61.0;6.0;123079;;;0
123132;0.0;1.0;0.0;123129;123105.0;123159.0;0
123215;0.0;1.0;0.0;123211;123187.0;123241.0;0
123295;0.0;1.0;0.0;123292;123268.0;123312.0;0
123347;0.0;1.0;0.0;123344;123329.0;123377.0;0
123438;0.0;1.0;0.0;123435;123407.0;123466.0;0
123523;0.0;1.0;0.0;123520;123494.0;123550.0;0
123558;2.0;61.0;6.0;123553;;;0
123605;0.0;1.0;0.0;123602;123577.0;123632.0;0
123640;2.0;61.0;6.0;123636;;;0
123688;0.0;1.0;0.0;123685;123660.0;123715.0;0
123723;2.0;61.0;6.0;123718;;;0
123771;0.0;1.0;0.0;123767;123743.0;123798.0;0
123852;0.0;1.0;0.0;123849;123825.0;123879.0;0
123934;0.0;1.0;0.0;123931;123906.0;123962.0;0
124018;0.0;1.0;0.0;124015;123990.0;124045.0;0
124052;2.0;61.0;6.0;124048;;;0
124101;0.0;1.0;0.0;124098;124073.0;124128.0;0
124183;0.0;1.0;0.0;124180;124155.0;124204.0;0
124247;0.0;1.0;0.0;124243;124225.0;124274.0;0
124328;0.0;1.0;0.0;124325;124301.0;124358.0;0
124419;0.0;1.0;0.0;124416;124388.0;124440.0;0
124482;0.0;1.0;0.0;124479;124461.0;124513.0;0
124577;0.0;1.0;0.0;124573;124545.0;124597.0;0
124639;0.0;1.0;0.0;124636;124618.0;124671.0;0
124736;0.0;1.0;0.0;124733;124703.0;124765.0;0
124825;0.0;1.0;0.0;124822;124795.0;124853.0;0
124911;0.0;1.0;0.0;124908;124882.0;124939.0;0
124944;2.0;61.0;6.0;124940;;;0
124995;0.0;1.0;0.0;124992;124967.0;125015.0;0
125057;0.0;1.0;0.0;125053;125036.0;125083.0;0
125135;0.0;1.0;0.0;125132;125109.0;125165.0;0
125189;2.0;62.0;6.0;125189;;;0
125226;0.0;1.0;0.0;125222;125195.0;125246.0;0
125288;0.0;1.0;0.0;125284;125267.0;125318.0;0
125380;0.0;1.0;0.0;125377;125349.0;125400.0;0
125440;0.0;1.0;0.0;125436;125420.0;125471.0;0
125483;2.0;62.0;6.0;125480;;;0
125534;0.0;1.0;0.0;125531;125502.0;125562.0;0
125620;0.0;1.0;0.0;125617;125591.0;125641.0;0
125683;0.0;1.0;0.0;125680;125662.0;125713.0;0
125773;0.0;1.0;0.0;125770;125743.0;125804.0;0
125814;2.0;62.0;6.0;125814;;;0
125866;0.0;1.0;0.0;125863;125835.0;125894.0;0
125950;0.0;1.0;0.0;125947;125922.0;125977.0;0
125983;2.0;61.0;6.0;125978;;;0
126033;0.0;1.0;0.0;126030;126005.0;126061.0;0
126117;0.0;1.0;0.0;126113;126089.0;126134.0;0
126169;0.0;1.0;0.0;126166;126151.0;126198.0;0
126258;0.0;1.0;0.0;126255;126228.0;126287.0;0
126295;2.0;61.0;6.0;126290;;;0
126346;0.0;1.0;0.0;126342;126316.0;126374.0;0
126430;0.0;1.0;0.0;126427;126402.0;126458.0;0
126514;0.0;1.0;0.0;126511;126486.0;126541.0;0
126597;0.0;1.0;0.0;126594;126569.0;126624.0;0
126680;0.0;1.0;0.0;126676;126652.0;126697.0;0
126732;0.0;1.0;0.0;126728;126714.0;126762.0;0
126772;2.0;61.0;6.0;126772;;;0
126822;0.0;1.0;0.0;126819;126792.0;126851.0;0
126858;2.0;61.0;6.0;126853;;;0
126909;0.0;1.0;0.0;126905;126880.0;126936.0;0
126944;2.0;61.0;6.0;126939;;;0
126992;0.0;1.0;0.0;126989;126964.0;127020.0;0
127076;0.0;1.0;0.0;127073;127048.0;127104.0;0
127160;0.0;1.0;0.0;127156;127132.0;127187.0;0
127242;0.0;1.0;0.0;127239;127214.0;127259.0;0
127294;0.0;1.0;0.0;127291;127276.0;127324.0;0
127328;2.0;61.0;6.0;127323;;;0
127384;0.0;1.0;0.0;127381;127354.0;127413.0;0
127473;0.0;1.0;0.0;127470;127443.0;127494.0;0
127536;0.0;1.0;0.0;127533;127515.0;127566.0;0
127628;0.0;1.0;0.0;127625;127597.0;127648.0;0
127689;0.0;1.0;0.0;127686;127668.0;127713.0;0
127763;0.0;1.0;0.0;127759;127738.0;127792.0;0
127798;2.0;61.0;6.0;127793;;;0
127850;0.0;1.0;0.0;127847;127821.0;127879.0;0
127938;0.0;1.0;0.0;127935;127908.0;127966.0;0
128023;0.0;1.0;0.0;128020;127994.0;128050.0;0
128106;0.0;1.0;0.0;128103;128078.0;128133.0;0
128139;2.0;61.0;6.0;128134;;;0
128189;0.0;1.0;0.0;128186;128161.0;128206.0;0
128241;0.0;1.0;0.0;128238;128223.0;128270.0;0
128273;2.0;61.0;6.0;128268;;;0
128329;0.0;1.0;0.0;128325;128299.0;128349.0;0
128389;0.0;1.0;0.0;128386;128369.0;128419.0;0
128481;0.0;1.0;0.0;128478;128450.0;128509.0;0
128567;0.0;1.0;0.0;128564;128538.0;128588.0;0
128631;0.0;1.0;0.0;128628;128609.0;128662.0;0
128725;0.0;1.0;0.0;128722;128693.0;128745.0;0
128785;0.0;1.0;0.0;128782;128765.0;128816.0;0
128829;2.0;61.0;6.0;128829;;;0
128878;0.0;1.0;0.0;128875;128847.0;128907.0;0
128915;2.0;62.0;6.0;128910;;;0
128966;0.0;1.0;0.0;128963;128936.0;128983.0;0
129017;0.0;1.0;0.0;129014;129000.0;129047.0;0
129108;0.0;1.0;0.0;129105;129077.0;129130.0;0
129176;0.0;1.0;0.0;129173;129153.0;129207.0;0
129214;2.0;61.0;6.0;129213;;;0
129271;0.0;1.0;0.0;129268;129239.0;129300.0;0
129314;2.0;62.0;6.0;129314;;;0
129359;0.0;1.0;0.0;129356;129329.0;129387.0;0
129443;0.0;1.0;0.0;129440;129415.0;129471.0;0
129527;0.0;1.0;0.0;129524;129499.0;129547.0;0
129587;0.0;1.0;0.0;129584;129567.0;129614.0;0
129670;0.0;1.0;0.0;129667;129642.0;129699.0;0
129704;2.0;61.0;6.0;129699;;;0
129759;0.0;1.0;0.0;129756;129729.0;129779.0;0
129821;0.0;1.0;0.0;129818;129800.0;129853.0;0
129918;0.0;1.0;0.0;129914;129885.0;129947.0;0
130006;0.0;1.0;0.0;130003;129976.0;130027.0;0
130071;0.0;1.0;0.0;130068;130049.0;130102.0;0
130166;0.0;1.0;0.0;130162;130134.0;130187.0;0
130230;0.0;1.0;0.0;130227;130208.0;130255.0;0
130307;0.0;1.0;0.0;130304;130281.0;130337.0;0
130339;2.0;61.0;6.0;130334;;;0
130397;0.0;1.0;0.0;130394;130367.0;130426.0;0
130431;2.0;61.0;6.0;130426;;;0
130486;0.0;1.0;0.0;130482;130456.0;130514.0;0
130571;0.0;1.0;0.0;130568;130542.0;130599.0;0
130656;0.0;1.0;0.0;130653;130627.0;130676.0;0
130717;0.0;1.0;0.0;130714;130696.0;130747.0;0
130809;0.0;1.0;0.0;130806;130778.0;130828.0;0
130868;0.0;1.0;0.0;130865;130848.0;130898.0;0
130958;0.0;1.0;0.0;130955;130928.0;130987.0;0
130995;2.0;62.0;6.0;130990;;;0
131046;0.0;1.0;0.0;131043;131016.0;131063.0;0
131098;0.0;1.0;0.0;131094;131080.0;131129.0;0
131191;0.0;1.0;0.0;131187;131160.0;131220.0;0
131226;2.0;61.0;6.0;131221;;;0
131280;0.0;1.0;0.0;131276;131250.0;131308.0;0
131364;0.0;1.0;0.0;131361;131336.0;131391.0;0
131447;0.0;1.0;0.0;131443;131419.0;131475.0;0
131531;0.0;1.0;0.0;131527;131503.0;131558.0;0
131614;0.0;1.0;0.0;131611;131586.0;131641.0;0
131696;0.0;1.0;0.0;131692;131668.0;131723.0;0
131778;0.0;1.0;0.0;131775;131750.0;131799.0;0
131842;0.0;1.0;0.0;131839;131820.0;131868.0;0
131921;0.0;1.0;0.0;131918;131894.0;131950.0;0
131963;2.0;61.0;6.0;131963;;;0
132009;0.0;1.0;0.0;132006;131979.0;132029.0;0
132070;0.0;1.0;0.0;132067;132049.0;132101.0;0
132165;0.0;1.0;0.0;132162;132133.0;132196.0;0
132199;2.0;61.0;6.0;132194;;;0
132258;0.0;1.0;0.0;132254;132227.0;132278.0;0
132318;0.0;1.0;0.0;132315;132298.0;132350.0;0
132414;0.0;1.0;0.0;132411;132382.0;132444.0;0
132461;2.0;62.0;6.0;132461;;;0
132504;0.0;1.0;0.0;132501;132474.0;132524.0;0
132564;0.0;1.0;0.0;132561;132544.0;132590.0;0
132643;0.0;1.0;0.0;132640;132616.0;132673.0;0
132733;0.0;1.0;0.0;132729;132703.0;132753.0;0
132794;0.0;1.0;0.0;132791;132773.0;132825.0;0
132837;2.0;61.0;6.0;132832;;;0
132888;0.0;1.0;0.0;132885;132856.0;132918.0;0
132924;2.0;62.0;6.0;132919;;;0
132978;0.0;1.0;0.0;132974;132948.0;133000.0;0
133044;0.0;1.0;0.0;133041;133022.0;133075.0;0
133098;2.0;62.0;6.0;133098;;;0
133139;0.0;1.0;0.0;133136;133107.0;133169.0;0
133182;2.0;62.0;6.0;133182;;;0
133229;0.0;1.0;0.0;133226;133199.0;133257.0;0
133315;0.0;1.0;0.0;133312;133286.0;133343.0;0
133400;0.0;1.0;0.0;133396;133371.0;133428.0;0
133434;2.0;62.0;6.0;133430;;;0
133485;0.0;1.0;0.0;133482;133456.0;133513.0;0
133518;2.0;61.0;6.0;133513;;;0
133569;0.0;1.0;0.0;133566;133541.0;133596.0;0
133652;0.0;1.0;0.0;133649;133624.0;133679.0;0
133735;0.0;1.0;0.0;133731;133707.0;133763.0;0
133819;0.0;1.0;0.0;133816;133791.0;133847.0;0
133903;0.0;1.0;0.0;133900;133875.0;133922.0;0
133960;0.0;1.0;0.0;133957;133941.0;133989.0;0
134049;0.0;1.0;0.0;134046;134019.0;134078.0;0
134085;2.0;62.0;6.0;134081;;;0
134137;0.0;1.0;0.0;134134;134107.0;134165.0;0
134221;0.0;1.0;0.0;134218;134193.0;134238.0;0
134274;0.0;1.0;0.0;134271;134256.0;134304.0;0
134364;0.0;1.0;0.0;134361;134334.0;134393.0;0
134401;2.0;61.0;6.0;134396;;;0
134452;0.0;1.0;0.0;134448;134422.0;134480.0;0
134536;0.0;1.0;0.0;134532;134508.0;134562.0;0
134616;0.0;1.0;0.0;134613;134589.0;134643.0;0
134698;0.0;1.0;0.0;134694;134670.0;134725.0;0
134779;0.0;1.0;0.0;134776;134752.0;134805.0;0
134859;0.0;1.0;0.0;134856;134832.0;134876.0;0
134912;0.0;1.0;0.0;134908;134894.0;134969.0;0
135084;0.0;1.0;0.0;135081;135026.0;135111.0;0
135165;0.0;1.0;0.0;135161;135138.0;135182.0;0
135217;0.0;1.0;0.0;135214;135199.0;135241.0;0
135291;0.0;1.0;0.0;135288;135266.0;135320.0;0
135380;0.0;1.0;0.0;135376;135350.0;135396.0;0
135430;0.0;1.0;0.0;135427;135413.0;135460.0;0
135464;2.0;61.0;6.0;135459;;;0
135522;0.0;1.0;0.0;135518;135491.0;135544.0;0
135589;0.0;1.0;0.0;135586;135566.0;135620.0;0
135682;0.0;1.0;0.0;135678;135651.0;135710.0;0
135766;0.0;1.0;0.0;135762;135738.0;135783.0;0
135817;0.0;1.0;0.0;135813;135800.0;135848.0;0
135911;0.0;1.0;0.0;135907;135879.0;135934.0;0
135980;0.0;1.0;0.0;135976;135957.0;136010.0;0
136012;2.0;61.0;6.0;136007;;;0
136072;0.0;1.0;0.0;136069;136041.0;136100.0;0
136109;2.0;62.0;6.0;136104;;;0
136158;0.0;1.0;0.0;136155;136129.0;136186.0;0
136244;0.0;1.0;0.0;136240;136215.0;136271.0;0
136327;0.0;1.0;0.0;136324;136299.0;136344.0;0
136380;0.0;1.0;0.0;136376;136362.0;136410.0;0
136415;2.0;62.0;6.0;136410;;;0
136470;0.0;1.0;0.0;136467;136440.0;136500.0;0
136513;2.0;62.0;6.0;136513;;;0
136562;0.0;1.0;0.0;136558;136531.0;136578.0;0
136612;0.0;1.0;0.0;136609;136595.0;136643.0;0
136706;0.0;1.0;0.0;136702;136674.0;136727.0;0
136770;0.0;1.0;0.0;136766;136748.0;136794.0;0
136842;0.0;1.0;0.0;136839;136818.0;136871.0;0
136876;2.0;61.0;6.0;136871;;;0
136930;0.0;1.0;0.0;136926;136900.0;136960.0;0
136966;2.0;61.0;6.0;136961;;;0
137020;0.0;1.0;0.0;137016;136990.0;137049.0;0
137108;0.0;1.0;0.0;137105;137078.0;137137.0;0
137195;0.0;1.0;0.0;137191;137166.0;137215.0;0
137256;0.0;1.0;0.0;137252;137235.0;137288.0;0
137354;0.0;1.0;0.0;137351;137321.0;137385.0;0
137391;2.0;62.0;6.0;137387;;;0
137448;0.0;1.0;0.0;137444;137416.0;137477.0;0
137537;0.0;1.0;0.0;137534;137507.0;137566.0;0
137624;0.0;1.0;0.0;137620;137595.0;137652.0;0
137709;0.0;1.0;0.0;137706;137680.0;137738.0;0
137797;0.0;1.0;0.0;137793;137767.0;137826.0;0
137884;0.0;1.0;0.0;137881;137855.0;137912.0;0
137925;2.0;62.0;6.0;137925;;;0
137969;0.0;1.0;0.0;137966;137940.0;137997.0;0
138054;0.0;1.0;0.0;138050;138025.0;138082.0;0
138140;0.0;1.0;0.0;138137;138111.0;138168.0;0
138226;0.0;1.0;0.0;138223;138197.0;138254.0;0
138310;0.0;1.0;0.0;138307;138282.0;138338.0;0
138396;0.0;1.0;0.0;138393;138367.0;138413.0;0
138449;0.0;1.0;0.0;138446;138431.0;138480.0;0
138543;0.0;1.0;0.0;138539;138511.0;138573.0;0
138579;2.0;61.0;6.0;138574;;;0
138635;0.0;1.0;0.0;138632;138604.0;138664.0;0
138679;2.0;61.0;6.0;138679;;;0
138723;0.0;1.0;0.0;138720;138693.0;138752.0;0
138756;2.0;61.0;6.0;138753;;;0
138811;0.0;1.0;0.0;138807;138781.0;138839.0;0
138895;0.0;1.0;0.0;138892;138867.0;138923.0;0
138980;0.0;1.0;0.0;138976;138951.0;138997.0;0
139033;0.0;1.0;0.0;139029;139015.0;139063.0;0
139123;0.0;1.0;0.0;139120;139093.0;139153.0;0
139213;0.0;1.0;0.0;139209;139183.0;139241.0;0
139298;0.0;1.0;0.0;139295;139269.0;139326.0;0
139338;2.0;62.0;6.0;139338;;;0
139384;0.0;1.0;0.0;139381;139355.0;139412.0;0
139469;0.0;1.0;0.0;139466;139440.0;139496.0;0
139552;0.0;1.0;0.0;139548;139524.0;139572.0;0
139613;0.0;1.0;0.0;139610;139592.0;139641.0;0
139698;0.0;1.0;0.0;139695;139669.0;139728.0;0
139732;2.0;62.0;6.0;139728;;;0
139789;0.0;1.0;0.0;139785;139758.0;139817.0;0
139874;0.0;1.0;0.0;139871;139845.0;139902.0;0
139959;0.0;1.0;0.0;139956;139930.0;139987.0;0
140001;2.0;61.0;6.0;140000;;;0
140044;0.0;1.0;0.0;140041;140015.0;140072.0;0
140128;0.0;1.0;0.0;140125;140100.0;140156.0;0
140212;0.0;1.0;0.0;140208;140184.0;140229.0;0
140263;0.0;1.0;0.0;140260;140246.0;140294.0;0
140304;2.0;61.0;6.0;140304;;;0
140357;0.0;1.0;0.0;140354;140325.0;140387.0;0
140391;2.0;61.0;6.0;140386;;;0
140449;0.0;1.0;0.0;140446;140418.0;140477.0;0
140535;0.0;1.0;0.0;140532;140506.0;140563.0;0
140621;0.0;1.0;0.0;140618;140592.0;140649.0;0
140662;2.0;61.0;6.0;140662;;;0
140707;0.0;1.0;0.0;140704;140678.0;140735.0;0
140792;0.0;1.0;0.0;140789;140763.0;140820.0;0
140876;0.0;1.0;0.0;140873;140848.0;140904.0;0
140961;0.0;1.0;0.0;140958;140932.0;140989.0;0
141047;0.0;1.0;0.0;141044;141018.0;141075.0;0
141132;0.0;1.0;0.0;141129;141103.0;141159.0;0
141167;2.0;61.0;6.0;141162;;;0
141215;0.0;1.0;0.0;141212;141187.0;141233.0;0
141269;0.0;1.0;0.0;141266;141251.0;141300.0;0
141303;2.0;61.0;6.0;141298;;;0
141364;0.0;1.0;0.0;141360;141332.0;141395.0;0
141457;0.0;1.0;0.0;141454;141426.0;141486.0;0
141492;2.0;61.0;6.0;141487;;;0
141544;0.0;1.0;0.0;141540;141515.0;141572.0;0
141629;0.0;1.0;0.0;141626;141600.0;141658.0;0
141716;0.0;1.0;0.0;141713;141687.0;141744.0;0
141759;2.0;61.0;6.0;141759;;;0
141802;0.0;1.0;0.0;141799;141773.0;141830.0;0
141839;2.0;61.0;6.0;141835;;;0
141886;0.0;1.0;0.0;141883;141858.0;141914.0;0
141970;0.0;1.0;0.0;141967;141942.0;141998.0;0
142055;0.0;1.0;0.0;142052;142026.0;142083.0;0
142090;2.0;61.0;6.0;142086;;;0
142139;0.0;1.0;0.0;142136;142111.0;142167.0;0
142174;2.0;61.0;6.0;142169;;;0
142223;0.0;1.0;0.0;142220;142195.0;142251.0;0
142307;0.0;1.0;0.0;142304;142279.0;142335.0;0
142340;2.0;61.0;6.0;142335;;;0
142391;0.0;1.0;0.0;142388;142363.0;142419.0;0
142475;0.0;1.0;0.0;142472;142447.0;142503.0;0
142559;0.0;1.0;0.0;142555;142531.0;142582.0;0
142630;0.0;1.0;0.0;142627;142606.0;142659.0;0
142673;2.0;61.0;6.0;142673;;;0
142718;0.0;1.0;0.0;142714;142688.0;142747.0;0
142807;0.0;1.0;0.0;142804;142777.0;142835.0;0
142893;0.0;1.0;0.0;142889;142864.0;142910.0;0
142945;0.0;1.0;0.0;142942;142927.0;142977.0;0
142979;2.0;61.0;6.0;142974;;;0
143043;0.0;1.0;0.0;143039;143010.0;143073.0;0
143078;2.0;62.0;6.0;143073;;;0
143134;0.0;1.0;0.0;143131;143103.0;143162.0;0
143220;0.0;1.0;0.0;143217;143191.0;143248.0;0
143306;0.0;1.0;0.0;143302;143277.0;143334.0;0
143339;2.0;62.0;6.0;143335;;;0
143392;0.0;1.0;0.0;143388;143363.0;143419.0;0
143475;0.0;1.0;0.0;143472;143447.0;143492.0;0
143528;0.0;1.0;0.0;143525;143510.0;143558.0;0
143619;0.0;1.0;0.0;143616;143588.0;143650.0;0
143655;2.0;61.0;6.0;143651;;;0
143713;0.0;1.0;0.0;143710;143681.0;143741.0;0
143799;0.0;1.0;0.0;143796;143770.0;143827.0;0
143884;0.0;1.0;0.0;143881;143855.0;143912.0;0
143969;0.0;1.0;0.0;143965;143940.0;143986.0;0
144022;0.0;1.0;0.0;144019;144004.0;144050.0;0
144056;2.0;61.0;6.0;144051;;;0
144106;0.0;1.0;0.0;144102;144078.0;144126.0;0
144168;0.0;1.0;0.0;144165;144147.0;144200.0;0
144266;0.0;1.0;0.0;144263;144233.0;144297.0;0
144310;2.0;61.0;6.0;144310;;;0
144360;0.0;1.0;0.0;144356;144328.0;144389.0;0
144396;2.0;61.0;6.0;144391;;;0
144448;0.0;1.0;0.0;144444;144418.0;144476.0;0
144533;0.0;1.0;0.0;144529;144504.0;144550.0;0
144586;0.0;1.0;0.0;144582;144568.0;144616.0;0
144677;0.0;1.0;0.0;144673;144646.0;144708.0;0
144771;0.0;1.0;0.0;144767;144739.0;144789.0;0
144826;0.0;1.0;0.0;144822;144807.0;144858.0;0
144865;2.0;61.0;6.0;144865;;;0
144923;0.0;1.0;0.0;144920;144890.0;144945.0;0
144991;0.0;1.0;0.0;144988;144968.0;145023.0;0
145022;2.0;61.0;6.0;145018;;;0
145087;0.0;1.0;0.0;145084;145055.0;145115.0;0
145129;2.0;61.0;6.0;145129;;;0
145173;0.0;1.0;0.0;145170;145144.0;145201.0;0
145257;0.0;1.0;0.0;145254;145229.0;145285.0;0
145343;0.0;1.0;0.0;145340;145314.0;145371.0;0
145429;0.0;1.0;0.0;145425;145400.0;145456.0;0
145512;0.0;1.0;0.0;145509;145484.0;145540.0;0
145596;0.0;1.0;0.0;145593;145568.0;145624.0;0
145682;0.0;1.0;0.0;145679;145653.0;145711.0;0
145769;0.0;1.0;0.0;145766;145740.0;145795.0;0
145849;0.0;1.0;0.0;145846;145822.0;145877.0;0
145935;0.0;1.0;0.0;145932;145906.0;145963.0;0
145977;2.0;62.0;6.0;145977;;;0
146021;0.0;1.0;0.0;146018;145992.0;146049.0;0
146107;0.0;1.0;0.0;146103;146078.0;146135.0;0
146191;0.0;1.0;0.0;146187;146163.0;146219.0;0
146276;0.0;1.0;0.0;146272;146247.0;146304.0;0
146310;2.0;62.0;6.0;146307;;;0
146362;0.0;1.0;0.0;146359;146333.0;146391.0;0
146449;0.0;1.0;0.0;146445;146420.0;146477.0;0
146533;0.0;1.0;0.0;146530;146505.0;146561.0;0
146617;0.0;1.0;0.0;146614;146589.0;146645.0;0
146658;2.0;62.0;6.0;146658;;;0
146702;0.0;1.0;0.0;146699;146673.0;146731.0;0
146739;2.0;62.0;6.0;146737;;;0
146789;0.0;1.0;0.0;146785;146760.0;146817.0;0
146874;0.0;1.0;0.0;146870;146845.0;146902.0;0
146958;0.0;1.0;0.0;146954;146930.0;146985.0;0
147041;0.0;1.0;0.0;147038;147013.0;147058.0;0
147094;0.0;1.0;0.0;147091;147076.0;147125.0;0
147129;2.0;61.0;6.0;147124;;;0
147189;0.0;1.0;0.0;147186;147157.0;147218.0;0
147278;0.0;1.0;0.0;147274;147248.0;147306.0;0
147363;0.0;1.0;0.0;147360;147334.0;147391.0;0
147449;0.0;1.0;0.0;147445;147420.0;147477.0;0
147534;0.0;1.0;0.0;147530;147505.0;147561.0;0
147617;0.0;1.0;0.0;147614;147589.0;147637.0;0
147678;0.0;1.0;0.0;147675;147657.0;147705.0;0
147761;0.0;1.0;0.0;147758;147733.0;147783.0;0
147827;0.0;1.0;0.0;147824;147805.0;147859.0;0
147923;0.0;1.0;0.0;147920;147891.0;147952.0;0
148010;0.0;1.0;0.0;148007;147981.0;148038.0;0
148094;0.0;1.0;0.0;148091;148066.0;148111.0;0
148146;0.0;1.0;0.0;148143;148128.0;148176.0;0
148238;0.0;1.0;0.0;148234;148207.0;148267.0;0
148325;0.0;1.0;0.0;148322;148296.0;148352.0;0
148355;2.0;62.0;6.0;148355;;;0
148408;0.0;1.0;0.0;148405;148380.0;148435.0;0
148491;0.0;1.0;0.0;148486;148463.0;148511.0;0
148552;0.0;1.0;0.0;148549;148531.0;148576.0;0
148626;0.0;1.0;0.0;148623;148601.0;148655.0;0
148715;0.0;1.0;0.0;148712;148685.0;148744.0;0
148802;0.0;1.0;0.0;148798;148773.0;148829.0;0
148884;0.0;1.0;0.0;148881;148856.0;148911.0;0
148966;0.0;1.0;0.0;148963;148938.0;148993.0;0
149048;0.0;1.0;0.0;149045;149020.0;149075.0;0
149130;0.0;1.0;0.0;149126;149102.0;149151.0;0
149194;0.0;1.0;0.0;149190;149172.0;149222.0;0
149279;0.0;1.0;0.0;149275;149250.0;149308.0;0
149366;0.0;1.0;0.0;149362;149337.0;149394.0;0
149399;2.0;62.0;6.0;149396;;;0
149450;0.0;1.0;0.0;149446;149422.0;149477.0;0
149531;0.0;1.0;0.0;149528;149504.0;149558.0;0
149613;0.0;1.0;0.0;149609;149585.0;149640.0;0
149696;0.0;1.0;0.0;149693;149668.0;149724.0;0
149780;0.0;1.0;0.0;149776;149752.0;149807.0;0
149862;0.0;1.0;0.0;149858;149834.0;149889.0;0
149944;0.0;0.0;0.0;149940;149916.0;149961.0;0
149997;0.0;1.0;0.0;149993;149979.0;150027.0;0
150087;0.0;1.0;0.0;150084;150057.0;150115.0;0
150172;0.0;2.0;0.0;150168;150143.0;150199.0;0
150254;0.0;2.0;0.0;150251;150226.0;150281.0;0
150294;2.0;60.0;6.0;150294;;;0
150336;0.0;2.0;0.0;150333;150308.0;150363.0;0
150418;0.0;2.0;0.0;150414;150390.0;150444.0;0
150498;0.0;2.0;0.0;150495;150471.0;150515.0;0
150551;0.0;2.0;0.0;150548;150533.0;150580.0;0
150640;0.0;1.0;0.0;150636;150610.0;150668.0;0
150725;0.0;1.0;0.0;150722;150696.0;150752.0;0
150807;0.0;1.0;0.0;150804;150779.0;150824.0;0
150860;0.0;1.0;0.0;150857;150842.0;150884.0;0
150932;0.0;1.0;0.0;150929;150908.0;150961.0;0
151019;0.0;1.0;0.0;151016;150990.0;151046.0;0
151102;0.0;1.0;0.0;151099;151074.0;151119.0;0
151155;0.0;1.0;0.0;151152;151137.0;151183.0;0
151241;0.0;1.0;0.0;151238;151212.0;151263.0;0
151307;0.0;1.0;0.0;151303;151285.0;151335.0;0
151393;0.0;1.0;0.0;151390;151364.0;151420.0;0
151476;0.0;1.0;0.0;151472;151448.0;151502.0;0
151555;0.0;1.0;0.0;151551;151528.0;151581.0;0
151634;0.0;1.0;0.0;151631;151607.0;151660.0;0
151713;0.0;1.0;0.0;151710;151686.0;151739.0;0
151792;0.0;1.0;0.0;151789;151765.0;151809.0;0
151844;0.0;1.0;0.0;151841;151826.0;151873.0;0
151931;0.0;1.0;0.0;151928;151902.0;151959.0;0
152015;0.0;1.0;0.0;152012;151987.0;152041.0;0
152095;0.0;1.0;0.0;152091;152068.0;152112.0;0
152147;0.0;1.0;0.0;152143;152129.0;152170.0;0
152217;0.0;1.0;0.0;152214;152193.0;152238.0;0
152281;0.0;1.0;0.0;152278;152259.0;152310.0;0
152370;0.0;1.0;0.0;152367;152340.0;152397.0;0
152453;0.0;1.0;0.0;152449;152425.0;152479.0;0
152492;2.0;61.0;6.0;152489;;;0
152533;0.0;1.0;0.0;152529;152506.0;152550.0;0
152585;0.0;1.0;0.0;152582;152567.0;152613.0;0
152671;0.0;1.0;0.0;152668;152642.0;152698.0;0
152707;2.0;61.0;6.0;152703;;;0
152754;0.0;1.0;0.0;152751;152726.0;152781.0;0
152836;0.0;1.0;0.0;152832;152808.0;152863.0;0
152917;0.0;1.0;0.0;152914;152890.0;152934.0;0
152970;0.0;1.0;0.0;152966;152952.0;152998.0;0
153055;0.0;1.0;0.0;153052;153026.0;153082.0;0
153089;2.0;61.0;6.0;153084;;;0
153138;0.0;1.0;0.0;153135;153110.0;153165.0;0
153219;0.0;1.0;0.0;153215;153192.0;153240.0;0
153284;0.0;1.0;0.0;153280;153262.0;153312.0;0
153370;0.0;1.0;0.0;153366;153341.0;153397.0;0
153452;0.0;1.0;0.0;153448;153424.0;153478.0;0
153532;0.0;1.0;0.0;153529;153505.0;153549.0;0
153584;0.0;1.0;0.0;153581;153566.0;153613.0;0
153618;2.0;61.0;6.0;153616;;;0
153671;0.0;1.0;0.0;153668;153642.0;153698.0;0
153705;2.0;61.0;6.0;153702;;;0
153754;0.0;1.0;0.0;153751;153726.0;153780.0;0
153791;2.0;62.0;6.0;153786;;;0
153834;0.0;1.0;0.0;153831;153807.0;153860.0;0
153913;0.0;2.0;0.0;153910;153886.0;153934.0;0
153978;0.0;2.0;0.0;153975;153956.0;154007.0;0
154066;0.0;2.0;0.0;154062;154036.0;154092.0;0
154145;0.0;1.0;0.0;154142;154118.0;154171.0;0
154224;0.0;1.0;0.0;154221;154197.0;154250.0;0
154304;0.0;1.0;0.0;154301;154277.0;154323.0;0
154361;0.0;1.0;0.0;154357;154342.0;154390.0;0
154449;0.0;1.0;0.0;154445;154419.0;154476.0;0
154531;0.0;1.0;0.0;154527;154503.0;154558.0;0
154613;0.0;1.0;0.0;154610;154585.0;154633.0;0
154675;0.0;1.0;0.0;154672;154654.0;154705.0;0
154765;0.0;1.0;0.0;154761;154735.0;154792.0;0
154800;2.0;62.0;6.0;154797;;;0
154848;0.0;1.0;0.0;154845;154820.0;154876.0;0
154932;0.0;1.0;0.0;154929;154904.0;154949.0;0
154985;0.0;1.0;0.0;154982;154967.0;155014.0;0
155027;2.0;62.0;6.0;155024;;;0
155072;0.0;1.0;0.0;155069;155043.0;155101.0;0
155160;0.0;1.0;0.0;155156;155130.0;155188.0;0
155206;2.0;62.0;6.0;155206;;;0
155246;0.0;1.0;0.0;155242;155217.0;155274.0;0
155330;0.0;1.0;0.0;155327;155302.0;155357.0;0
155412;0.0;1.0;0.0;155409;155384.0;155439.0;0
155495;0.0;1.0;0.0;155492;155467.0;155512.0;0
155547;0.0;1.0;0.0;155544;155529.0;155576.0;0
155634;0.0;1.0;0.0;155631;155605.0;155663.0;0
155723;0.0;1.0;0.0;155720;155693.0;155752.0;0
155810;0.0;1.0;0.0;155806;155781.0;155838.0;0
155895;0.0;1.0;0.0;155892;155866.0;155923.0;0
155979;0.0;1.0;0.0;155976;155951.0;156007.0;0
156012;2.0;61.0;6.0;156007;;;0
156063;0.0;1.0;0.0;156059;156035.0;156091.0;0
156148;0.0;1.0;0.0;156145;156119.0;156176.0;0
156233;0.0;1.0;0.0;156230;156204.0;156260.0;0
156316;0.0;1.0;0.0;156313;156288.0;156344.0;0
156400;0.0;1.0;0.0;156397;156372.0;156417.0;0
156453;0.0;1.0;0.0;156450;156435.0;156483.0;0
156544;0.0;1.0;0.0;156541;156513.0;156572.0;0
156630;0.0;1.0;0.0;156627;156601.0;156647.0;0
156681;0.0;1.0;0.0;156678;156664.0;156711.0;0
156715;2.0;61.0;6.0;156712;;;0
156773;0.0;1.0;0.0;156769;156742.0;156801.0;0
156808;2.0;62.0;6.0;156805;;;0
156857;0.0;1.0;0.0;156854;156829.0;156884.0;0
156893;2.0;61.0;6.0;156891;;;0
156939;0.0;0.0;0.0;156934;156911.0;156965.0;0
157019;0.0;0.0;0.0;157015;156992.0;157035.0;0
157069;0.0;0.0;0.0;157066;157052.0;157098.0;0
157156;0.0;0.0;0.0;157153;157127.0;157184.0;0
157188;2.0;61.0;6.0;157185;;;0
157241;0.0;2.0;0.0;157237;157212.0;157268.0;0
157278;2.0;60.0;6.0;157278;;;0
157323;0.0;2.0;0.0;157320;157295.0;157350.0;0
157405;0.0;2.0;0.0;157401;157377.0;157432.0;0
157486;0.0;1.0;0.0;157482;157459.0;157503.0;0
157539;0.0;1.0;0.0;157536;157521.0;157555.0;0
157589;0.0;1.0;0.0;157586;157572.0;157611.0;0
157656;0.0;1.0;0.0;157652;157633.0;157683.0;0
157694;2.0;61.0;6.0;157694;;;0
157738;0.0;1.0;0.0;157734;157710.0;157766.0;0
157823;0.0;1.0;0.0;157820;157794.0;157848.0;0
157900;0.0;1.0;0.0;157896;157874.0;157927.0;0
157941;2.0;61.0;6.0;157941;;;0
157982;0.0;1.0;0.0;157979;157954.0;158008.0;0
158062;0.0;1.0;0.0;158059;158035.0;158088.0;0
158142;0.0;1.0;0.0;158138;158115.0;158168.0;0
158221;0.0;0.0;0.0;158218;158194.0;158247.0;0
158260;2.0;63.0;6.0;158260;;;0
158300;0.0;0.0;0.0;158297;158273.0;158326.0;0
158380;0.0;1.0;0.0;158377;158353.0;158406.0;0
158460;0.0;1.0;0.0;158456;158433.0;158486.0;0
158538;0.0;1.0;0.0;158535;158512.0;158564.0;0
158578;2.0;62.0;6.0;158578;;;0
158617;0.0;1.0;0.0;158614;158590.0;158643.0;0
158697;0.0;0.0;0.0;158694;158670.0;158721.0;0
158771;0.0;0.0;0.0;158767;158746.0;158798.0;0
158809;2.0;63.0;6.0;158809;;;0
158854;0.0;0.0;0.0;158850;158826.0;158881.0;0
158936;0.0;0.0;0.0;158932;158908.0;158963.0;0
158976;2.0;63.0;6.0;158976;;;0
159017;0.0;0.0;0.0;159013;158990.0;159034.0;0
159070;0.0;1.0;0.0;159067;159052.0;159099.0;0
159159;0.0;1.0;0.0;159156;159129.0;159187.0;0
159198;2.0;61.0;6.0;159198;;;0
159245;0.0;1.0;0.0;159242;159216.0;159273.0;0
159330;0.0;1.0;0.0;159326;159301.0;159357.0;0
159413;0.0;1.0;0.0;159409;159385.0;159440.0;0
159495;0.0;1.0;0.0;159492;159467.0;159523.0;0
159579;0.0;1.0;0.0;159575;159551.0;159606.0;0
159662;0.0;1.0;0.0;159659;159634.0;159689.0;0
159745;0.0;1.0;0.0;159742;159717.0;159763.0;0
159799;0.0;1.0;0.0;159796;159781.0;159829.0;0
159891;0.0;1.0;0.0;159887;159860.0;159920.0;0
159979;0.0;1.0;0.0;159975;159949.0;159996.0;0
160032;0.0;1.0;0.0;160029;160014.0;160063.0;0
160125;0.0;1.0;0.0;160122;160094.0;160154.0;0
160213;0.0;1.0;0.0;160209;160183.0;160241.0;0
160245;2.0;62.0;6.0;160241;;;0
160298;0.0;1.0;0.0;160294;160269.0;160326.0;0
160333;2.0;62.0;6.0;160331;;;0
160383;0.0;1.0;0.0;160379;160354.0;160411.0;0
160467;0.0;1.0;0.0;160463;160439.0;160494.0;0
160508;2.0;62.0;6.0;160508;;;0
160550;0.0;1.0;0.0;160547;160522.0;160578.0;0
160635;0.0;1.0;0.0;160631;160606.0;160663.0;0
160720;0.0;1.0;0.0;160716;160691.0;160748.0;0
160804;0.0;1.0;0.0;160801;160776.0;160832.0;0
160845;2.0;62.0;6.0;160845;;;0
160889;0.0;1.0;0.0;160885;160860.0;160917.0;0
160974;0.0;1.0;0.0;160970;160945.0;161002.0;0
161058;0.0;1.0;0.0;161055;161030.0;161086.0;0
161099;2.0;62.0;6.0;161099;;;0
161143;0.0;1.0;0.0;161139;161114.0;161171.0;0
161228;0.0;1.0;0.0;161225;161199.0;161256.0;0
161314;0.0;1.0;0.0;161311;161285.0;161342.0;0
161346;2.0;62.0;6.0;161343;;;0
161399;0.0;1.0;0.0;161396;161370.0;161427.0;0
161441;2.0;62.0;6.0;161441;;;0
161484;0.0;1.0;0.0;161480;161455.0;161512.0;0
161527;2.0;62.0;6.0;161527;;;0
161569;0.0;1.0;0.0;161566;161540.0;161597.0;0
161602;2.0;61.0;6.0;161600;;;0
161654;0.0;1.0;0.0;161651;161625.0;161675.0;0
161719;0.0;1.0;0.0;161716;161697.0;161743.0;0
161792;0.0;1.0;0.0;161789;161767.0;161821.0;0
161880;0.0;1.0;0.0;161877;161850.0;161910.0;0
161970;0.0;1.0;0.0;161967;161940.0;161998.0;0
162055;0.0;1.0;0.0;162052;162026.0;162083.0;0
162139;0.0;1.0;0.0;162136;162111.0;162167.0;0
162223;0.0;1.0;0.0;162219;162195.0;162245.0;0
162290;0.0;1.0;0.0;162286;162267.0;162320.0;0
162382;0.0;1.0;0.0;162378;162351.0;162410.0;0
162467;0.0;1.0;0.0;162464;162438.0;162495.0;0
162551;0.0;1.0;0.0;162548;162523.0;162578.0;0
162634;0.0;1.0;0.0;162631;162606.0;162662.0;0
162668;2.0;61.0;6.0;162663;;;0
162718;0.0;1.0;0.0;162714;162690.0;162746.0;0
162802;0.0;1.0;0.0;162798;162774.0;162825.0;0
162872;0.0;1.0;0.0;162868;162848.0;162893.0;0
162936;0.0;1.0;0.0;162932;162914.0;162972.0;0
163044;0.0;1.0;0.0;163040;163008.0;163076.0;0
163086;2.0;62.0;6.0;163086;;;0
163142;0.0;1.0;0.0;163139;163109.0;163164.0;0
163208;0.0;1.0;0.0;163205;163186.0;163240.0;0
163306;0.0;1.0;0.0;163303;163273.0;163326.0;0
163367;0.0;1.0;0.0;163364;163346.0;163399.0;0
163420;2.0;62.0;6.0;163420;;;0
163465;0.0;1.0;0.0;163461;163432.0;163495.0;0
163556;0.0;1.0;0.0;163553;163525.0;163574.0;0
163611;0.0;1.0;0.0;163608;163592.0;163640.0;0
163700;0.0;1.0;0.0;163696;163670.0;163722.0;0
163768;0.0;1.0;0.0;163765;163745.0;163801.0;0
163812;2.0;61.0;6.0;163809;;;0
163867;0.0;1.0;0.0;163863;163834.0;163897.0;0
163958;0.0;1.0;0.0;163955;163927.0;163987.0;0
164000;2.0;61.0;6.0;164000;;;0
164045;0.0;1.0;0.0;164042;164016.0;164074.0;0
164132;0.0;1.0;0.0;164129;164103.0;164161.0;0
164171;2.0;61.0;6.0;164171;;;0
164220;0.0;1.0;0.0;164217;164190.0;164248.0;0
164306;0.0;1.0;0.0;164303;164277.0;164335.0;0
164393;0.0;1.0;0.0;164389;164364.0;164411.0;0
164447;0.0;1.0;0.0;164444;164429.0;164477.0;0
164481;2.0;61.0;6.0;164479;;;0
164538;0.0;1.0;0.0;164535;164507.0;164569.0;0
164580;2.0;61.0;6.0;164580;;;0
164633;0.0;1.0;0.0;164629;164601.0;164662.0;0
164667;2.0;61.0;6.0;164664;;;0
164722;0.0;1.0;0.0;164719;164692.0;164740.0;0
164777;0.0;1.0;0.0;164774;164758.0;164809.0;0
164873;0.0;1.0;0.0;164870;164841.0;164904.0;0
164915;2.0;61.0;6.0;164915;;;0
164967;0.0;1.0;0.0;164963;164935.0;164996.0;0
164997;2.0;61.0;6.0;164996;;;0
165056;0.0;1.0;0.0;165052;165026.0;165085.0;0
165143;0.0;1.0;0.0;165140;165114.0;165172.0;0
165177;2.0;61.0;6.0;165173;;;0
165230;0.0;1.0;0.0;165227;165201.0;165248.0;0
165285;0.0;1.0;0.0;165282;165266.0;165315.0;0
165376;0.0;1.0;0.0;165372;165345.0;165407.0;0
165469;0.0;1.0;0.0;165466;165438.0;165498.0;0
165558;0.0;1.0;0.0;165555;165528.0;165587.0;0
165646;0.0;1.0;0.0;165643;165616.0;165674.0;0
165732;0.0;1.0;0.0;165728;165703.0;165760.0;0
165817;0.0;1.0;0.0;165814;165788.0;165835.0;0
165871;0.0;1.0;0.0;165868;165853.0;165901.0;0
165918;2.0;62.0;6.0;165918;;;0
165961;0.0;1.0;0.0;165958;165931.0;165991.0;0
166001;2.0;61.0;6.0;166001;;;0
166051;0.0;1.0;0.0;166048;166021.0;166068.0;0
166102;0.0;1.0;0.0;166099;166085.0;166132.0;0
166193;0.0;1.0;0.0;166190;166162.0;166222.0;0
166282;0.0;1.0;0.0;166279;166252.0;166310.0;0
166368;0.0;1.0;0.0;166364;166339.0;166396.0;0
166453;0.0;1.0;0.0;166450;166424.0;166471.0;0
166507;0.0;1.0;0.0;166504;166489.0;166538.0;0
166601;0.0;1.0;0.0;166598;166569.0;166631.0;0
166692;0.0;1.0;0.0;166689;166661.0;166721.0;0
166780;0.0;1.0;0.0;166777;166750.0;166809.0;0
166867;0.0;1.0;0.0;166864;166838.0;166896.0;0
166954;0.0;1.0;0.0;166950;166925.0;166972.0;0
167008;0.0;1.0;0.0;167005;166990.0;167036.0;0
167093;0.0;1.0;0.0;167089;167064.0;167124.0;0
167187;0.0;1.0;0.0;167184;167155.0;167217.0;0
167277;0.0;1.0;0.0;167274;167247.0;167306.0;0
167319;2.0;62.0;6.0;167319;;;0
167365;0.0;1.0;0.0;167362;167335.0;167394.0;0
167409;2.0;62.0;6.0;167409;;;0
167452;0.0;1.0;0.0;167448;167423.0;167480.0;0
167537;0.0;1.0;0.0;167534;167508.0;167555.0;0
167592;0.0;1.0;0.0;167588;167573.0;167621.0;0
167681;0.0;1.0;0.0;167677;167651.0;167711.0;0
167733;2.0;62.0;6.0;167728;;;0
167773;0.0;1.0;0.0;167770;167742.0;167802.0;0
167802;2.0;62.0;6.0;167802;;;0
167861;0.0;1.0;0.0;167858;167831.0;167890.0;0
167949;0.0;1.0;0.0;167946;167919.0;167978.0;0
168036;0.0;1.0;0.0;168032;168007.0;168054.0;0
168090;0.0;1.0;0.0;168087;168072.0;168119.0;0
168178;0.0;1.0;0.0;168174;168148.0;168198.0;0
168239;0.0;1.0;0.0;168236;168218.0;168272.0;0
168339;0.0;1.0;0.0;168336;168305.0;168370.0;0
168433;0.0;1.0;0.0;168429;168401.0;168462.0;0
168476;2.0;62.0;6.0;168476;;;0
168522;0.0;1.0;0.0;168518;168492.0;168551.0;0
168609;0.0;1.0;0.0;168606;168580.0;168638.0;0
168696;0.0;1.0;0.0;168692;168667.0;168724.0;0
168782;0.0;1.0;0.0;168779;168753.0;168810.0;0
168819;2.0;62.0;6.0;168817;;;0
168868;0.0;1.0;0.0;168865;168839.0;168886.0;0
168922;0.0;1.0;0.0;168919;168904.0;168952.0;0
169014;0.0;1.0;0.0;169010;168983.0;169045.0;0
169107;0.0;1.0;0.0;169104;169076.0;169128.0;0
169170;0.0;1.0;0.0;169167;169149.0;169202.0;0
169215;2.0;61.0;6.0;169211;;;0
169267;0.0;1.0;0.0;169263;169234.0;169297.0;0
169302;2.0;61.0;6.0;169297;;;0
169357;0.0;1.0;0.0;169353;169327.0;169385.0;0
169443;0.0;1.0;0.0;169440;169414.0;169460.0;0
169496;0.0;1.0;0.0;169493;169478.0;169526.0;0
169587;0.0;1.0;0.0;169584;169556.0;169618.0;0
169680;0.0;1.0;0.0;169677;169649.0;169709.0;0
169768;0.0;1.0;0.0;169764;169738.0;169796.0;0
169854;0.0;1.0;0.0;169851;169825.0;169872.0;0
169908;0.0;1.0;0.0;169905;169890.0;169935.0;0
169989;0.0;1.0;0.0;169986;169962.0;170020.0;0
170084;0.0;1.0;0.0;170081;170052.0;170101.0;0
170136;0.0;1.0;0.0;170133;170118.0;170169.0;0
170236;0.0;1.0;0.0;170232;170202.0;170267.0;0
170277;2.0;61.0;6.0;170277;;;0
170330;0.0;1.0;0.0;170327;170298.0;170360.0;0
170371;2.0;62.0;6.0;170371;;;0
170420;0.0;1.0;0.0;170416;170390.0;170449.0;0
170462;2.0;62.0;6.0;170462;;;0
170508;0.0;1.0;0.0;170504;170478.0;170537.0;0
170544;2.0;62.0;6.0;170541;;;0
170596;0.0;1.0;0.0;170592;170566.0;170625.0;0
170637;2.0;62.0;6.0;170637;;;0
170684;0.0;1.0;0.0;170680;170654.0;170702.0;0
170738;0.0;1.0;0.0;170735;170720.0;170769.0;0
170779;2.0;61.0;6.0;170777;;;0
170832;0.0;1.0;0.0;170828;170800.0;170864.0;0
170929;0.0;1.0;0.0;170925;170896.0;170959.0;0
170965;2.0;61.0;6.0;170962;;;0
171019;0.0;1.0;0.0;171015;170989.0;171048.0;0
171107;0.0;1.0;0.0;171103;171077.0;171136.0;0
171194;0.0;1.0;0.0;171191;171165.0;171212.0;0
171248;0.0;1.0;0.0;171245;171230.0;171277.0;0
171294;2.0;61.0;6.0;171294;;;0
171336;0.0;1.0;0.0;171332;171306.0;171368.0;0
171432;0.0;1.0;0.0;171429;171400.0;171461.0;0
171475;2.0;61.0;6.0;171475;;;0
171521;0.0;1.0;0.0;171518;171491.0;171550.0;0
171610;0.0;1.0;0.0;171606;171580.0;171639.0;0
171698;0.0;1.0;0.0;171695;171668.0;171727.0;0
171785;0.0;1.0;0.0;171782;171756.0;171803.0;0
171840;0.0;1.0;0.0;171837;171821.0;171871.0;0
171933;0.0;1.0;0.0;171930;171902.0;171965.0;0
172031;0.0;1.0;0.0;172027;171998.0;172060.0;0
172071;2.0;62.0;6.0;172071;;;0
172120;0.0;1.0;0.0;172117;172090.0;172149.0;0
172208;0.0;1.0;0.0;172205;172178.0;172237.0;0
172296;0.0;1.0;0.0;172292;172266.0;172324.0;0
172382;0.0;1.0;0.0;172379;172353.0;172410.0;0
172467;0.0;1.0;0.0;172464;172438.0;172495.0;0
172502;2.0;61.0;6.0;172497;;;0
172553;0.0;1.0;0.0;172549;172524.0;172581.0;0
172638;0.0;1.0;0.0;172634;172609.0;172666.0;0
172723;0.0;1.0;0.0;172719;172694.0;172746.0;0
172793;0.0;1.0;0.0;172789;172769.0;172823.0;0
172835;2.0;61.0;6.0;172834;;;0
172885;0.0;1.0;0.0;172881;172854.0;172915.0;0
172929;2.0;62.0;6.0;172929;;;0
172976;0.0;1.0;0.0;172973;172945.0;173005.0;0
173064;0.0;1.0;0.0;173061;173034.0;173093.0;0
173108;2.0;62.0;6.0;173108;;;0
173152;0.0;1.0;0.0;173149;173122.0;173181.0;0
173240;0.0;1.0;0.0;173237;173210.0;173269.0;0
173282;2.0;62.0;6.0;173282;;;0
173329;0.0;1.0;0.0;173325;173299.0;173358.0;0
173370;2.0;62.0;6.0;173370;;;0
173417;0.0;1.0;0.0;173413;173387.0;173435.0;0
173471;0.0;1.0;0.0;173468;173453.0;173501.0;0
173563;0.0;1.0;0.0;173559;173532.0;173595.0;0
173661;0.0;1.0;0.0;173658;173628.0;173691.0;0
173713;2.0;62.0;6.0;173710;;;0
173752;0.0;1.0;0.0;173748;173721.0;173781.0;0
173840;0.0;1.0;0.0;173837;173810.0;173869.0;0
173883;2.0;62.0;6.0;173883;;;0
173928;0.0;1.0;0.0;173925;173898.0;173957.0;0
173970;2.0;62.0;6.0;173970;;;0
174016;0.0;1.0;0.0;174013;173986.0;174034.0;0
174070;0.0;1.0;0.0;174067;174052.0;174100.0;0
174161;0.0;1.0;0.0;174158;174130.0;174183.0;0
174228;0.0;1.0;0.0;174225;174205.0;174262.0;0
174262;2.0;61.0;6.0;174257;;;0
174332;0.0;1.0;0.0;174328;174297.0;174363.0;0
174426;0.0;1.0;0.0;174422;174394.0;174455.0;0
174515;0.0;1.0;0.0;174511;174485.0;174544.0;0
174603;0.0;1.0;0.0;174599;174573.0;174621.0;0
174657;0.0;1.0;0.0;174654;174639.0;174687.0;0
174749;0.0;1.0;0.0;174745;174718.0;174771.0;0
174816;0.0;1.0;0.0;174813;174793.0;174850.0;0
174854;2.0;61.0;6.0;174853;;;0
174920;0.0;1.0;0.0;174916;174885.0;174951.0;0
174968;2.0;61.0;6.0;174964;;;0
175014;0.0;1.0;0.0;175010;174982.0;175043.0;0
175054;2.0;61.0;6.0;175054;;;0
175102;0.0;1.0;0.0;175098;175072.0;175130.0;0
175145;2.0;62.0;6.0;175145;;;0
175188;0.0;1.0;0.0;175185;175159.0;175216.0;0
175222;2.0;61.0;6.0;175219;;;0
175274;0.0;1.0;0.0;175271;175245.0;175302.0;0
175360;0.0;1.0;0.0;175357;175331.0;175388.0;0
175446;0.0;1.0;0.0;175442;175417.0;175474.0;0
175486;2.0;62.0;6.0;175486;;;0
175531;0.0;1.0;0.0;175527;175502.0;175554.0;0
175600;0.0;1.0;0.0;175596;175577.0;175630.0;0
175642;2.0;61.0;6.0;175642;;;0
175692;0.0;1.0;0.0;175688;175661.0;175723.0;0
175742;2.0;62.0;6.0;175738;;;0
175785;0.0;1.0;0.0;175782;175754.0;175814.0;0
175874;0.0;1.0;0.0;175871;175844.0;175903.0;0
175963;0.0;1.0;0.0;175959;175933.0;175992.0;0
176050;0.0;1.0;0.0;176047;176021.0;176079.0;0
176091;2.0;62.0;6.0;176091;;;0
176137;0.0;1.0;0.0;176133;176108.0;176166.0;0
176224;0.0;1.0;0.0;176220;176195.0;176253.0;0
176266;2.0;62.0;6.0;176266;;;0
176312;0.0;1.0;0.0;176309;176282.0;176330.0;0
176367;0.0;1.0;0.0;176364;176348.0;176398.0;0
176461;0.0;1.0;0.0;176457;176429.0;176483.0;0
176527;0.0;1.0;0.0;176523;176505.0;176543.0;0
176577;0.0;1.0;0.0;176573;176560.0;176595.0;0
176632;0.0;1.0;0.0;176629;176613.0;176665.0;0
176732;0.0;1.0;0.0;176728;176698.0;176764.0;0
176767;2.0;61.0;6.0;176764;;;0
176829;0.0;1.0;0.0;176825;176796.0;176859.0;0
176920;0.0;1.0;0.0;176916;176889.0;176949.0;0
177008;0.0;1.0;0.0;177004;176978.0;177036.0;0
177094;0.0;1.0;0.0;177091;177065.0;177112.0;0
177148;0.0;1.0;0.0;177145;177130.0;177179.0;0
177241;0.0;1.0;0.0;177237;177210.0;177272.0;0
177284;2.0;61.0;6.0;177284;;;0
177334;0.0;1.0;0.0;177330;177303.0;177363.0;0
177421;0.0;1.0;0.0;177417;177392.0;177439.0;0
177475;0.0;1.0;0.0;177472;177457.0;177499.0;0
177548;0.0;1.0;0.0;177544;177523.0;177568.0;0
177610;0.0;1.0;0.0;177606;177589.0;177644.0;0
177659;2.0;61.0;6.0;177659;;;0
177712;0.0;1.0;0.0;177708;177678.0;177744.0;0
177748;2.0;61.0;6.0;177743;;;0
177808;0.0;1.0;0.0;177805;177776.0;177838.0;0
177900;0.0;1.0;0.0;177896;177869.0;177930.0;0
177990;0.0;1.0;0.0;177987;177960.0;178019.0;0
178031;2.0;61.0;6.0;178031;;;0
178079;0.0;1.0;0.0;178076;178049.0;178108.0;0
178110;2.0;61.0;6.0;178105;;;0
178167;0.0;1.0;0.0;178164;178137.0;178196.0;0
178255;0.0;1.0;0.0;178252;178225.0;178284.0;0
178288;2.0;61.0;6.0;178283;;;0
178344;0.0;1.0;0.0;178341;178314.0;178362.0;0
178399;0.0;1.0;0.0;178396;178380.0;178430.0;0
178493;0.0;1.0;0.0;178489;178461.0;178525.0;0
178538;2.0;62.0;6.0;178538;;;0
178589;0.0;1.0;0.0;178586;178557.0;178619.0;0
178679;0.0;1.0;0.0;178676;178649.0;178708.0;0
178766;0.0;1.0;0.0;178763;178737.0;178795.0;0
178810;2.0;62.0;6.0;178810;;;0
178854;0.0;1.0;0.0;178850;178824.0;178872.0;0
178909;0.0;2.0;0.0;178905;178890.0;178939.0;0
178999;0.0;1.0;0.0;178995;178969.0;179030.0;0
179036;2.0;62.0;6.0;179032;;;0
179094;0.0;1.0;0.0;179091;179062.0;179123.0;0
179183;0.0;1.0;0.0;179179;179153.0;179212.0;0
179270;0.0;1.0;0.0;179267;179241.0;179299.0;0
179357;0.0;1.0;0.0;179353;179328.0;179378.0;0
179422;0.0;1.0;0.0;179419;179400.0;179447.0;0
179497;0.0;1.0;0.0;179493;179472.0;179528.0;0
179590;0.0;1.0;0.0;179587;179559.0;179620.0;0
179682;0.0;1.0;0.0;179679;179651.0;179711.0;0
179771;0.0;1.0;0.0;179767;179741.0;179799.0;0
179803;2.0;61.0;6.0;179800;;;0
179857;0.0;1.0;0.0;179854;179828.0;179885.0;0
179899;2.0;62.0;6.0;179899;;;0
179943;0.0;1.0;0.0;179940;179914.0;179972.0;0
180030;0.0;1.0;0.0;180027;180001.0;180059.0;0
180071;2.0;62.0;6.0;180071;;;0
180117;0.0;1.0;0.0;180114;180088.0;180145.0;0
180203;0.0;1.0;0.0;180200;180174.0;180221.0;0
180258;0.0;1.0;0.0;180255;180239.0;180289.0;0
180353;0.0;1.0;0.0;180349;180321.0;180386.0;0
180452;0.0;1.0;0.0;180449;180419.0;180482.0;0
180493;2.0;61.0;6.0;180493;;;0
180542;0.0;1.0;0.0;180539;180512.0;180571.0;0
180631;0.0;1.0;0.0;180627;180601.0;180660.0;0
180665;2.0;62.0;6.0;180661;;;0
180719;0.0;1.0;0.0;180716;180689.0;180748.0;0
180753;2.0;61.0;6.0;180748;;;0
180807;0.0;1.0;0.0;180803;180777.0;180836.0;0
180894;0.0;1.0;0.0;180890;180865.0;180923.0;0
180927;2.0;61.0;6.0;180924;;;0
180981;0.0;1.0;0.0;180977;180952.0;181010.0;0
181068;0.0;1.0;0.0;181065;181039.0;181097.0;0
181111;2.0;62.0;6.0;181111;;;0
181157;0.0;1.0;0.0;181153;181127.0;181186.0;0
181198;2.0;62.0;6.0;181198;;;0
181244;0.0;1.0;0.0;181241;181215.0;181273.0;0
181284;2.0;62.0;6.0;181284;;;0
181331;0.0;1.0;0.0;181327;181302.0;181360.0;0
181418;0.0;1.0;0.0;181414;181389.0;181447.0;0
181460;2.0;62.0;6.0;181460;;;0
181506;0.0;1.0;0.0;181502;181476.0;181531.0;0
181582;0.0;1.0;0.0;181579;181556.0;181612.0;0
181674;0.0;1.0;0.0;181670;181643.0;181703.0;0
181707;2.0;62.0;6.0;181703;;;0
181762;0.0;1.0;0.0;181759;181732.0;181791.0;0
181849;0.0;1.0;0.0;181846;181820.0;181877.0;0
181934;0.0;1.0;0.0;181931;181905.0;181962.0;0
182019;0.0;1.0;0.0;182016;181990.0;182047.0;0
182053;2.0;62.0;6.0;182050;;;0
182105;0.0;1.0;0.0;182102;182076.0;182133.0;0
182190;0.0;1.0;0.0;182187;182161.0;182218.0;0
182231;2.0;62.0;6.0;182231;;;0
182275;0.0;1.0;0.0;182272;182246.0;182304.0;0
182319;2.0;62.0;6.0;182319;;;0
182362;0.0;1.0;0.0;182359;182333.0;182387.0;0
182438;0.0;1.0;0.0;182435;182412.0;182468.0;0
182480;2.0;61.0;6.0;182480;;;0
182530;0.0;1.0;0.0;182527;182499.0;182560.0;0
182620;0.0;1.0;0.0;182617;182590.0;182649.0;0
182708;0.0;1.0;0.0;182705;182678.0;182737.0;0
182796;0.0;1.0;0.0;182792;182766.0;182825.0;0
182838;2.0;61.0;6.0;182838;;;0
182885;0.0;1.0;0.0;182881;182855.0;182914.0;0
182926;2.0;61.0;6.0;182926;;;0
182972;0.0;1.0;0.0;182969;182943.0;182990.0;0
183027;0.0;1.0;0.0;183024;183008.0;183058.0;0
183068;2.0;61.0;6.0;183068;;;0
183120;0.0;1.0;0.0;183117;183089.0;183153.0;0
183219;0.0;1.0;0.0;183216;183186.0;183249.0;0
183309;0.0;1.0;0.0;183306;183279.0;183338.0;0
183397;0.0;1.0;0.0;183393;183367.0;183426.0;0
183484;0.0;1.0;0.0;183481;183455.0;183502.0;0
183539;0.0;1.0;0.0;183536;183520.0;183568.0;0
183627;0.0;1.0;0.0;183624;183597.0;183658.0;0
183720;0.0;1.0;0.0;183717;183689.0;183749.0;0
183808;0.0;1.0;0.0;183805;183778.0;183836.0;0
183894;0.0;1.0;0.0;183891;183865.0;183912.0;0
183948;0.0;1.0;0.0;183945;183930.0;183977.0;0
184037;0.0;1.0;0.0;184034;184007.0;184057.0;0
184097;0.0;1.0;0.0;184094;184077.0;184129.0;0
184131;2.0;61.0;6.0;184126;;;0
184193;0.0;1.0;0.0;184189;184161.0;184222.0;0
184236;2.0;62.0;6.0;184236;;;0
184282;0.0;1.0;0.0;184279;184252.0;184310.0;0
184368;0.0;1.0;0.0;184365;184339.0;184396.0;0
184410;2.0;62.0;6.0;184410;;;0
184452;0.0;1.0;0.0;184449;184424.0;184480.0;0
184536;0.0;1.0;0.0;184532;184508.0;184553.0;0
184589;0.0;1.0;0.0;184586;184571.0;184620.0;0
184682;0.0;1.0;0.0;184679;184651.0;184704.0;0
184749;0.0;1.0;0.0;184746;184726.0;184767.0;0
184803;0.0;1.0;0.0;184800;184785.0;184834.0;0
184896;0.0;1.0;0.0;184893;184865.0;184927.0;0
184989;0.0;1.0;0.0;184985;184958.0;185018.0;0
185076;0.0;1.0;0.0;185072;185047.0;185104.0;0
185162;0.0;1.0;0.0;185159;185133.0;185180.0;0
185217;0.0;1.0;0.0;185214;185198.0;185245.0;0
185302;0.0;1.0;0.0;185298;185273.0;185333.0;0
185344;2.0;62.0;6.0;185344;;;0
185397;0.0;1.0;0.0;185393;185365.0;185427.0;0
185488;0.0;1.0;0.0;185485;185457.0;185517.0;0
185523;2.0;61.0;6.0;185520;;;0
185577;0.0;1.0;0.0;185574;185547.0;185607.0;0
185620;2.0;61.0;6.0;185620;;;0
185667;0.0;1.0;0.0;185663;185637.0;185696.0;0
185707;2.0;61.0;6.0;185707;;;0
185755;0.0;1.0;0.0;185751;185725.0;185784.0;0
185844;0.0;1.0;0.0;185840;185814.0;185873.0;0
185878;2.0;61.0;6.0;185874;;;0
185931;0.0;1.0;0.0;185928;185902.0;185960.0;0
186019;0.0;1.0;0.0;186016;185989.0;186037.0;0
186074;0.0;1.0;0.0;186071;186055.0;186105.0;0
186108;2.0;61.0;6.0;186103;;;0
186169;0.0;1.0;0.0;186165;186137.0;186201.0;0
186266;0.0;1.0;0.0;186262;186233.0;186296.0;0
186356;0.0;1.0;0.0;186353;186326.0;186385.0;0
186398;2.0;61.0;6.0;186398;;;0
186443;0.0;1.0;0.0;186440;186414.0;186471.0;0
186484;2.0;61.0;6.0;186484;;;0
186528;0.0;1.0;0.0;186525;186499.0;186556.0;0
186613;0.0;1.0;0.0;186609;186584.0;186641.0;0
186698;0.0;1.0;0.0;186694;186669.0;186726.0;0
186783;0.0;1.0;0.0;186779;186754.0;186811.0;0
186867;0.0;1.0;0.0;186864;186839.0;186891.0;0
186940;0.0;1.0;0.0;186937;186915.0;186971.0;0
186994;2.0;61.0;6.0;186994;;;0
187033;0.0;1.0;0.0;187029;187002.0;187062.0;0
187122;0.0;1.0;0.0;187118;187092.0;187151.0;0
187157;2.0;61.0;6.0;187152;;;0
187209;0.0;1.0;0.0;187205;187180.0;187238.0;0
187243;2.0;62.0;6.0;187238;;;0
187297;0.0;1.0;0.0;187293;187267.0;187326.0;0
187384;0.0;1.0;0.0;187381;187355.0;187413.0;0
187424;2.0;62.0;6.0;187424;;;0
187472;0.0;1.0;0.0;187468;187442.0;187490.0;0
187526;0.0;1.0;0.0;187523;187508.0;187557.0;0
187562;2.0;62.0;6.0;187559;;;0
187619;0.0;1.0;0.0;187615;187588.0;187651.0;0
187716;0.0;1.0;0.0;187712;187683.0;187746.0;0
187806;0.0;1.0;0.0;187802;187776.0;187824.0;0
187861;0.0;1.0;0.0;187857;187842.0;187894.0;0
187960;0.0;1.0;0.0;187957;187927.0;187991.0;0
188053;0.0;1.0;0.0;188050;188022.0;188082.0;0
188094;2.0;61.0;6.0;188094;;;0
188142;0.0;1.0;0.0;188138;188112.0;188160.0;0
188196;0.0;1.0;0.0;188193;188178.0;188228.0;0
188292;0.0;1.0;0.0;188288;188260.0;188313.0;0
188355;0.0;1.0;0.0;188352;188334.0;188388.0;0
188389;2.0;61.0;6.0;188384;;;0
188455;0.0;1.0;0.0;188451;188421.0;188485.0;0
188546;0.0;1.0;0.0;188543;188515.0;188575.0;0
188633;0.0;1.0;0.0;188629;188604.0;188651.0;0
188687;0.0;1.0;0.0;188684;188669.0;188717.0;0
188779;0.0;1.0;0.0;188776;188748.0;188810.0;0
188873;0.0;1.0;0.0;188870;188841.0;188902.0;0
188962;0.0;1.0;0.0;188958;188932.0;188991.0;0
189050;0.0;1.0;0.0;189046;189020.0;189078.0;0
189136;0.0;1.0;0.0;189133;189107.0;189154.0;0
189190;0.0;1.0;0.0;189187;189172.0;189221.0;0
189225;2.0;61.0;6.0;189220;;;0
189284;0.0;1.0;0.0;189280;189252.0;189314.0;0
189376;0.0;1.0;0.0;189372;189345.0;189404.0;0
189412;2.0;61.0;6.0;189407;;;0
189462;0.0;1.0;0.0;189459;189433.0;189490.0;0
